# OpenSignals Text File Format. Version 1
# {"98:D3:51:FD:9C:70": {"position": 0, "device": "bitalino_rev", "device name": "98:D3:51:FD:9C:70", "device connection": "BTH98:D3:51:FD:9C:70", "sampling rate": 100, "resolution": [4, 1, 1, 1, 1, 10, 10], "firmware version": 1281, "comments": "", "keywords": "", "mode": 0, "sync interval": 2, "date": "2024-9-26", "time": "20:19:27.414", "channels": [2, 3], "sensor": ["RAW", "RAW"], "label": ["A2", "A3"], "column": ["nSeq", "I1", "I2", "O1", "O2", "A2", "A3"], "special": [{}, {}], "digital IO": [0, 0, 1, 1], "convertedValues": 0}}
# EndOfHeader
0	0	0	0	0	488	614	
1	0	0	0	0	446	614	
2	0	0	0	0	454	613	
3	0	0	0	0	489	613	
4	0	0	0	0	470	614	
5	0	0	0	0	462	613	
6	0	0	0	0	486	613	
7	0	0	0	0	455	613	
8	0	0	0	0	468	613	
9	0	0	0	0	576	613	
10	0	0	0	0	700	613	
11	0	0	0	0	669	613	
12	0	0	0	0	480	613	
13	0	0	0	0	398	612	
14	0	0	0	0	470	612	
15	0	0	0	0	479	612	
0	0	0	0	0	491	612	
1	0	0	0	0	471	612	
2	0	0	0	0	460	612	
3	0	0	0	0	518	612	
4	0	0	0	0	497	612	
5	0	0	0	0	537	612	
6	0	0	0	0	535	612	
7	0	0	0	0	505	612	
8	0	0	0	0	556	612	
9	0	0	0	0	558	612	
10	0	0	0	0	531	612	
11	0	0	0	0	636	612	
12	0	0	0	0	528	612	
13	0	0	0	0	561	613	
14	0	0	0	0	663	612	
15	0	0	0	0	594	612	
0	0	0	0	0	613	613	
1	0	0	0	0	623	613	
2	0	0	0	0	637	613	
3	0	0	0	0	616	613	
4	0	0	0	0	562	614	
5	0	0	0	0	520	614	
6	0	0	0	0	569	614	
7	0	0	0	0	527	615	
8	0	0	0	0	506	615	
9	0	0	0	0	511	615	
10	0	0	0	0	472	615	
11	0	0	0	0	500	615	
12	0	0	0	0	480	616	
13	0	0	0	0	546	616	
14	0	0	0	0	514	617	
15	0	0	0	0	543	617	
0	0	0	0	0	528	617	
1	0	0	0	0	486	617	
2	0	0	0	0	491	618	
3	0	0	0	0	495	619	
4	0	0	0	0	490	619	
5	0	0	0	0	491	620	
6	0	0	0	0	528	620	
7	0	0	0	0	524	620	
8	0	0	0	0	471	620	
9	0	0	0	0	472	621	
10	0	0	0	0	508	621	
11	0	0	0	0	467	622	
12	0	0	0	0	473	622	
13	0	0	0	0	538	623	
14	0	0	0	0	489	623	
15	0	0	0	0	489	624	
0	0	0	0	0	529	624	
1	0	0	0	0	486	624	
2	0	0	0	0	594	625	
3	0	0	0	0	494	625	
4	0	0	0	0	568	625	
5	0	0	0	0	553	626	
6	0	0	0	0	472	627	
7	0	0	0	0	415	627	
8	0	0	0	0	509	627	
9	0	0	0	0	473	627	
10	0	0	0	0	476	628	
11	0	0	0	0	486	628	
12	0	0	0	0	459	628	
13	0	0	0	0	500	629	
14	0	0	0	0	481	630	
15	0	0	0	0	560	630	
0	0	0	0	0	658	630	
1	0	0	0	0	609	631	
2	0	0	0	0	432	631	
3	0	0	0	0	412	631	
4	0	0	0	0	429	632	
5	0	0	0	0	440	632	
6	0	0	0	0	448	632	
7	0	0	0	0	443	632	
8	0	0	0	0	499	633	
9	0	0	0	0	465	633	
10	0	0	0	0	441	633	
11	0	0	0	0	458	633	
12	0	0	0	0	474	634	
13	0	0	0	0	472	634	
14	0	0	0	0	476	635	
15	0	0	0	0	466	635	
0	0	0	0	0	510	635	
1	0	0	0	0	456	636	
2	0	0	0	0	489	636	
3	0	0	0	0	504	636	
4	0	0	0	0	526	636	
5	0	0	0	0	520	636	
6	0	0	0	0	533	637	
7	0	0	0	0	529	637	
8	0	0	0	0	458	638	
9	0	0	0	0	539	638	
10	0	0	0	0	507	638	
11	0	0	0	0	404	638	
12	0	0	0	0	519	639	
13	0	0	0	0	455	639	
14	0	0	0	0	484	639	
15	0	0	0	0	457	639	
0	0	0	0	0	430	639	
1	0	0	0	0	422	640	
2	0	0	0	0	485	640	
3	0	0	0	0	440	640	
4	0	0	0	0	423	640	
5	0	0	0	0	494	640	
6	0	0	0	0	449	641	
7	0	0	0	0	468	641	
8	0	0	0	0	484	641	
9	0	0	0	0	458	641	
10	0	0	0	0	492	641	
11	0	0	0	0	454	641	
12	0	0	0	0	506	641	
13	0	0	0	0	467	641	
14	0	0	0	0	490	641	
15	0	0	0	0	477	641	
0	0	0	0	0	434	641	
1	0	0	0	0	512	641	
2	0	0	0	0	463	641	
3	0	0	0	0	497	641	
4	0	0	0	0	484	641	
5	0	0	0	0	504	642	
6	0	0	0	0	475	641	
7	0	0	0	0	473	641	
8	0	0	0	0	492	642	
9	0	0	0	0	479	641	
10	0	0	0	0	526	642	
11	0	0	0	0	485	642	
12	0	0	0	0	480	642	
13	0	0	0	0	472	642	
14	0	0	0	0	506	642	
15	0	0	0	0	519	642	
0	0	0	0	0	513	642	
1	0	0	0	0	512	641	
2	0	0	0	0	508	642	
3	0	0	0	0	525	642	
4	0	0	0	0	486	642	
5	0	0	0	0	492	642	
6	0	0	0	0	487	642	
7	0	0	0	0	464	641	
8	0	0	0	0	487	641	
9	0	0	0	0	486	642	
10	0	0	0	0	463	641	
11	0	0	0	0	487	641	
12	0	0	0	0	486	641	
13	0	0	0	0	488	641	
14	0	0	0	0	489	641	
15	0	0	0	0	543	641	
0	0	0	0	0	660	641	
1	0	0	0	0	556	641	
2	0	0	0	0	485	641	
3	0	0	0	0	420	641	
4	0	0	0	0	463	640	
5	0	0	0	0	492	641	
6	0	0	0	0	512	640	
7	0	0	0	0	507	641	
8	0	0	0	0	480	640	
9	0	0	0	0	512	640	
10	0	0	0	0	488	640	
11	0	0	0	0	505	640	
12	0	0	0	0	523	640	
13	0	0	0	0	499	640	
14	0	0	0	0	500	640	
15	0	0	0	0	531	640	
0	0	0	0	0	557	640	
1	0	0	0	0	442	639	
2	0	0	0	0	577	639	
3	0	0	0	0	557	639	
4	0	0	0	0	554	639	
5	0	0	0	0	544	639	
6	0	0	0	0	563	639	
7	0	0	0	0	551	639	
8	0	0	0	0	563	639	
9	0	0	0	0	551	639	
10	0	0	0	0	539	639	
11	0	0	0	0	503	639	
12	0	0	0	0	508	639	
13	0	0	0	0	481	639	
14	0	0	0	0	467	638	
15	0	0	0	0	462	638	
0	0	0	0	0	458	638	
1	0	0	0	0	461	638	
2	0	0	0	0	444	638	
3	0	0	0	0	489	638	
4	0	0	0	0	508	638	
5	0	0	0	0	480	638	
6	0	0	0	0	508	638	
7	0	0	0	0	510	637	
8	0	0	0	0	480	637	
9	0	0	0	0	481	637	
10	0	0	0	0	478	637	
11	0	0	0	0	496	636	
12	0	0	0	0	511	637	
13	0	0	0	0	529	636	
14	0	0	0	0	425	636	
15	0	0	0	0	503	636	
0	0	0	0	0	519	636	
1	0	0	0	0	543	636	
2	0	0	0	0	475	636	
3	0	0	0	0	494	635	
4	0	0	0	0	503	635	
5	0	0	0	0	526	635	
6	0	0	0	0	471	635	
7	0	0	0	0	530	635	
8	0	0	0	0	493	635	
9	0	0	0	0	486	634	
10	0	0	0	0	510	634	
11	0	0	0	0	518	634	
12	0	0	0	0	521	634	
13	0	0	0	0	503	634	
14	0	0	0	0	515	634	
15	0	0	0	0	516	633	
0	0	0	0	0	520	633	
1	0	0	0	0	515	633	
2	0	0	0	0	523	633	
3	0	0	0	0	514	632	
4	0	0	0	0	519	633	
5	0	0	0	0	505	633	
6	0	0	0	0	566	632	
7	0	0	0	0	682	632	
8	0	0	0	0	655	632	
9	0	0	0	0	476	632	
10	0	0	0	0	439	632	
11	0	0	0	0	493	632	
12	0	0	0	0	464	631	
13	0	0	0	0	488	631	
14	0	0	0	0	516	631	
15	0	0	0	0	524	631	
0	0	0	0	0	489	631	
1	0	0	0	0	502	631	
2	0	0	0	0	501	630	
3	0	0	0	0	497	630	
4	0	0	0	0	538	630	
5	0	0	0	0	533	630	
6	0	0	0	0	534	630	
7	0	0	0	0	542	630	
8	0	0	0	0	526	629	
9	0	0	0	0	531	629	
10	0	0	0	0	511	629	
11	0	0	0	0	538	629	
12	0	0	0	0	542	629	
13	0	0	0	0	563	629	
14	0	0	0	0	579	628	
15	0	0	0	0	598	628	
0	0	0	0	0	586	628	
1	0	0	0	0	569	628	
2	0	0	0	0	568	627	
3	0	0	0	0	516	627	
4	0	0	0	0	526	627	
5	0	0	0	0	497	627	
6	0	0	0	0	481	627	
7	0	0	0	0	486	627	
8	0	0	0	0	462	626	
9	0	0	0	0	493	626	
10	0	0	0	0	491	626	
11	0	0	0	0	489	625	
12	0	0	0	0	460	626	
13	0	0	0	0	510	625	
14	0	0	0	0	539	625	
15	0	0	0	0	534	625	
0	0	0	0	0	498	625	
1	0	0	0	0	520	625	
2	0	0	0	0	514	625	
3	0	0	0	0	522	624	
4	0	0	0	0	539	624	
5	0	0	0	0	544	624	
6	0	0	0	0	524	624	
7	0	0	0	0	508	624	
8	0	0	0	0	524	624	
9	0	0	0	0	498	623	
10	0	0	0	0	512	624	
11	0	0	0	0	536	623	
12	0	0	0	0	526	623	
13	0	0	0	0	518	623	
14	0	0	0	0	533	623	
15	0	0	0	0	529	623	
0	0	0	0	0	519	623	
1	0	0	0	0	531	623	
2	0	0	0	0	559	623	
3	0	0	0	0	528	623	
4	0	0	0	0	532	623	
5	0	0	0	0	531	623	
6	0	0	0	0	528	622	
7	0	0	0	0	518	622	
8	0	0	0	0	518	622	
9	0	0	0	0	515	622	
10	0	0	0	0	525	622	
11	0	0	0	0	521	622	
12	0	0	0	0	533	622	
13	0	0	0	0	525	622	
14	0	0	0	0	519	622	
15	0	0	0	0	496	622	
0	0	0	0	0	527	622	
1	0	0	0	0	511	622	
2	0	0	0	0	533	622	
3	0	0	0	0	508	622	
4	0	0	0	0	524	623	
5	0	0	0	0	521	623	
6	0	0	0	0	540	623	
7	0	0	0	0	527	623	
8	0	0	0	0	525	623	
9	0	0	0	0	526	623	
10	0	0	0	0	515	623	
11	0	0	0	0	482	623	
12	0	0	0	0	520	623	
13	0	0	0	0	504	623	
14	0	0	0	0	495	624	
15	0	0	0	0	515	624	
0	0	0	0	0	511	624	
1	0	0	0	0	480	624	
2	0	0	0	0	509	624	
3	0	0	0	0	638	625	
4	0	0	0	0	732	625	
5	0	0	0	0	623	625	
6	0	0	0	0	441	625	
7	0	0	0	0	428	625	
8	0	0	0	0	475	626	
9	0	0	0	0	513	626	
10	0	0	0	0	491	626	
11	0	0	0	0	484	626	
12	0	0	0	0	441	627	
13	0	0	0	0	528	627	
14	0	0	0	0	497	627	
15	0	0	0	0	485	627	
0	0	0	0	0	502	627	
1	0	0	0	0	498	628	
2	0	0	0	0	529	628	
3	0	0	0	0	494	628	
4	0	0	0	0	522	628	
5	0	0	0	0	508	629	
6	0	0	0	0	538	629	
7	0	0	0	0	539	629	
8	0	0	0	0	529	630	
9	0	0	0	0	543	629	
10	0	0	0	0	559	630	
11	0	0	0	0	527	630	
12	0	0	0	0	518	631	
13	0	0	0	0	566	631	
14	0	0	0	0	507	631	
15	0	0	0	0	526	631	
0	0	0	0	0	477	631	
1	0	0	0	0	439	632	
2	0	0	0	0	432	631	
3	0	0	0	0	489	632	
4	0	0	0	0	433	632	
5	0	0	0	0	460	632	
6	0	0	0	0	486	632	
7	0	0	0	0	495	633	
8	0	0	0	0	479	633	
9	0	0	0	0	495	633	
10	0	0	0	0	499	633	
11	0	0	0	0	444	633	
12	0	0	0	0	522	633	
13	0	0	0	0	493	634	
14	0	0	0	0	500	634	
15	0	0	0	0	508	634	
0	0	0	0	0	515	634	
1	0	0	0	0	501	634	
2	0	0	0	0	509	634	
3	0	0	0	0	532	634	
4	0	0	0	0	494	635	
5	0	0	0	0	559	635	
6	0	0	0	0	499	635	
7	0	0	0	0	511	635	
8	0	0	0	0	529	635	
9	0	0	0	0	540	635	
10	0	0	0	0	518	635	
11	0	0	0	0	515	635	
12	0	0	0	0	506	636	
13	0	0	0	0	508	636	
14	0	0	0	0	505	636	
15	0	0	0	0	511	636	
0	0	0	0	0	532	636	
1	0	0	0	0	504	636	
2	0	0	0	0	476	636	
3	0	0	0	0	498	636	
4	0	0	0	0	464	636	
5	0	0	0	0	480	636	
6	0	0	0	0	402	636	
7	0	0	0	0	459	636	
8	0	0	0	0	462	636	
9	0	0	0	0	449	636	
10	0	0	0	0	462	637	
11	0	0	0	0	487	637	
12	0	0	0	0	439	637	
13	0	0	0	0	461	637	
14	0	0	0	0	481	637	
15	0	0	0	0	505	637	
0	0	0	0	0	490	638	
1	0	0	0	0	509	637	
2	0	0	0	0	508	638	
3	0	0	0	0	520	638	
4	0	0	0	0	498	638	
5	0	0	0	0	588	638	
6	0	0	0	0	453	638	
7	0	0	0	0	551	638	
8	0	0	0	0	508	638	
9	0	0	0	0	502	637	
10	0	0	0	0	519	637	
11	0	0	0	0	484	637	
12	0	0	0	0	514	638	
13	0	0	0	0	460	638	
14	0	0	0	0	575	637	
15	0	0	0	0	696	637	
0	0	0	0	0	665	637	
1	0	0	0	0	448	637	
2	0	0	0	0	427	637	
3	0	0	0	0	487	637	
4	0	0	0	0	478	637	
5	0	0	0	0	505	636	
6	0	0	0	0	519	636	
7	0	0	0	0	500	636	
8	0	0	0	0	525	636	
9	0	0	0	0	537	636	
10	0	0	0	0	502	636	
11	0	0	0	0	532	636	
12	0	0	0	0	529	636	
13	0	0	0	0	502	636	
14	0	0	0	0	563	636	
15	0	0	0	0	508	636	
0	0	0	0	0	519	636	
1	0	0	0	0	539	636	
2	0	0	0	0	574	636	
3	0	0	0	0	542	636	
4	0	0	0	0	547	635	
5	0	0	0	0	599	635	
6	0	0	0	0	568	635	
7	0	0	0	0	572	635	
8	0	0	0	0	561	635	
9	0	0	0	0	585	635	
10	0	0	0	0	527	635	
11	0	0	0	0	483	634	
12	0	0	0	0	465	634	
13	0	0	0	0	487	634	
14	0	0	0	0	468	634	
15	0	0	0	0	486	634	
0	0	0	0	0	499	634	
1	0	0	0	0	475	634	
2	0	0	0	0	489	633	
3	0	0	0	0	466	633	
4	0	0	0	0	483	633	
5	0	0	0	0	499	633	
6	0	0	0	0	487	633	
7	0	0	0	0	513	633	
8	0	0	0	0	500	632	
9	0	0	0	0	478	632	
10	0	0	0	0	510	632	
11	0	0	0	0	482	632	
12	0	0	0	0	510	632	
13	0	0	0	0	527	632	
14	0	0	0	0	515	632	
15	0	0	0	0	481	632	
0	0	0	0	0	503	632	
1	0	0	0	0	478	632	
2	0	0	0	0	501	632	
3	0	0	0	0	502	632	
4	0	0	0	0	527	632	
5	0	0	0	0	512	632	
6	0	0	0	0	502	632	
7	0	0	0	0	519	631	
8	0	0	0	0	496	631	
9	0	0	0	0	510	631	
10	0	0	0	0	508	631	
11	0	0	0	0	519	631	
12	0	0	0	0	490	631	
13	0	0	0	0	535	631	
14	0	0	0	0	521	631	
15	0	0	0	0	546	631	
0	0	0	0	0	515	631	
1	0	0	0	0	531	631	
2	0	0	0	0	487	631	
3	0	0	0	0	509	630	
4	0	0	0	0	508	630	
5	0	0	0	0	470	631	
6	0	0	0	0	499	630	
7	0	0	0	0	493	631	
8	0	0	0	0	515	631	
9	0	0	0	0	500	631	
10	0	0	0	0	492	631	
11	0	0	0	0	535	631	
12	0	0	0	0	635	631	
13	0	0	0	0	685	631	
14	0	0	0	0	500	631	
15	0	0	0	0	432	631	
0	0	0	0	0	461	631	
1	0	0	0	0	484	631	
2	0	0	0	0	495	632	
3	0	0	0	0	462	632	
4	0	0	0	0	492	632	
5	0	0	0	0	508	632	
6	0	0	0	0	494	632	
7	0	0	0	0	508	633	
8	0	0	0	0	461	633	
9	0	0	0	0	472	633	
10	0	0	0	0	483	633	
11	0	0	0	0	458	634	
12	0	0	0	0	502	634	
13	0	0	0	0	474	635	
14	0	0	0	0	483	635	
15	0	0	0	0	502	635	
0	0	0	0	0	505	636	
1	0	0	0	0	519	636	
2	0	0	0	0	523	636	
3	0	0	0	0	528	637	
4	0	0	0	0	535	637	
5	0	0	0	0	503	638	
6	0	0	0	0	520	638	
7	0	0	0	0	483	639	
8	0	0	0	0	475	639	
9	0	0	0	0	444	639	
10	0	0	0	0	419	640	
11	0	0	0	0	437	641	
12	0	0	0	0	435	641	
13	0	0	0	0	440	642	
14	0	0	0	0	434	642	
15	0	0	0	0	447	643	
0	0	0	0	0	459	643	
1	0	0	0	0	431	644	
2	0	0	0	0	455	644	
3	0	0	0	0	445	644	
4	0	0	0	0	438	645	
5	0	0	0	0	462	646	
6	0	0	0	0	493	646	
7	0	0	0	0	470	647	
8	0	0	0	0	471	647	
9	0	0	0	0	478	648	
10	0	0	0	0	473	648	
11	0	0	0	0	464	649	
12	0	0	0	0	502	649	
13	0	0	0	0	474	649	
14	0	0	0	0	476	650	
15	0	0	0	0	490	651	
0	0	0	0	0	484	651	
1	0	0	0	0	475	651	
2	0	0	0	0	476	652	
3	0	0	0	0	475	652	
4	0	0	0	0	496	653	
5	0	0	0	0	487	653	
6	0	0	0	0	427	654	
7	0	0	0	0	502	654	
8	0	0	0	0	479	654	
9	0	0	0	0	494	655	
10	0	0	0	0	480	655	
11	0	0	0	0	493	655	
12	0	0	0	0	479	655	
13	0	0	0	0	493	656	
14	0	0	0	0	511	656	
15	0	0	0	0	513	656	
0	0	0	0	0	497	657	
1	0	0	0	0	504	657	
2	0	0	0	0	491	657	
3	0	0	0	0	490	658	
4	0	0	0	0	467	658	
5	0	0	0	0	479	658	
6	0	0	0	0	456	659	
7	0	0	0	0	487	659	
8	0	0	0	0	476	659	
9	0	0	0	0	483	659	
10	0	0	0	0	480	659	
11	0	0	0	0	582	660	
12	0	0	0	0	673	660	
13	0	0	0	0	568	660	
14	0	0	0	0	406	660	
15	0	0	0	0	365	660	
0	0	0	0	0	450	661	
1	0	0	0	0	453	661	
2	0	0	0	0	465	661	
3	0	0	0	0	459	661	
4	0	0	0	0	445	661	
5	0	0	0	0	462	662	
6	0	0	0	0	482	662	
7	0	0	0	0	478	662	
8	0	0	0	0	485	662	
9	0	0	0	0	484	662	
10	0	0	0	0	493	662	
11	0	0	0	0	487	663	
12	0	0	0	0	496	663	
13	0	0	0	0	491	663	
14	0	0	0	0	511	663	
15	0	0	0	0	512	663	
0	0	0	0	0	535	663	
1	0	0	0	0	551	663	
2	0	0	0	0	527	663	
3	0	0	0	0	545	663	
4	0	0	0	0	545	663	
5	0	0	0	0	543	663	
6	0	0	0	0	523	663	
7	0	0	0	0	507	664	
8	0	0	0	0	492	664	
9	0	0	0	0	480	664	
10	0	0	0	0	470	664	
11	0	0	0	0	447	664	
12	0	0	0	0	483	664	
13	0	0	0	0	485	664	
14	0	0	0	0	475	664	
15	0	0	0	0	480	664	
0	0	0	0	0	483	664	
1	0	0	0	0	480	664	
2	0	0	0	0	477	664	
3	0	0	0	0	513	664	
4	0	0	0	0	468	664	
5	0	0	0	0	516	664	
6	0	0	0	0	528	664	
7	0	0	0	0	478	663	
8	0	0	0	0	527	664	
9	0	0	0	0	518	664	
10	0	0	0	0	514	664	
11	0	0	0	0	513	663	
12	0	0	0	0	521	663	
13	0	0	0	0	497	663	
14	0	0	0	0	527	663	
15	0	0	0	0	533	663	
0	0	0	0	0	548	664	
1	0	0	0	0	517	664	
2	0	0	0	0	515	663	
3	0	0	0	0	506	663	
4	0	0	0	0	504	663	
5	0	0	0	0	534	663	
6	0	0	0	0	523	663	
7	0	0	0	0	492	663	
8	0	0	0	0	537	663	
9	0	0	0	0	525	663	
10	0	0	0	0	540	663	
11	0	0	0	0	504	663	
12	0	0	0	0	526	663	
13	0	0	0	0	529	663	
14	0	0	0	0	561	663	
15	0	0	0	0	518	663	
0	0	0	0	0	532	663	
1	0	0	0	0	517	662	
2	0	0	0	0	527	662	
3	0	0	0	0	522	662	
4	0	0	0	0	544	662	
5	0	0	0	0	544	662	
6	0	0	0	0	553	662	
7	0	0	0	0	536	662	
8	0	0	0	0	502	662	
9	0	0	0	0	512	662	
10	0	0	0	0	512	662	
11	0	0	0	0	506	662	
12	0	0	0	0	468	661	
13	0	0	0	0	505	661	
14	0	0	0	0	552	662	
15	0	0	0	0	536	661	
0	0	0	0	0	496	661	
1	0	0	0	0	550	661	
2	0	0	0	0	671	661	
3	0	0	0	0	684	661	
4	0	0	0	0	528	660	
5	0	0	0	0	443	660	
6	0	0	0	0	461	660	
7	0	0	0	0	487	660	
8	0	0	0	0	503	660	
9	0	0	0	0	518	660	
10	0	0	0	0	515	660	
11	0	0	0	0	509	660	
12	0	0	0	0	506	660	
13	0	0	0	0	511	659	
14	0	0	0	0	535	659	
15	0	0	0	0	529	659	
0	0	0	0	0	529	659	
1	0	0	0	0	532	659	
2	0	0	0	0	540	659	
3	0	0	0	0	560	659	
4	0	0	0	0	552	658	
5	0	0	0	0	570	658	
6	0	0	0	0	572	658	
7	0	0	0	0	581	658	
8	0	0	0	0	572	658	
9	0	0	0	0	585	658	
10	0	0	0	0	586	657	
11	0	0	0	0	583	657	
12	0	0	0	0	575	657	
13	0	0	0	0	536	657	
14	0	0	0	0	539	657	
15	0	0	0	0	501	657	
0	0	0	0	0	479	656	
1	0	0	0	0	464	656	
2	0	0	0	0	456	656	
3	0	0	0	0	472	656	
4	0	0	0	0	479	656	
5	0	0	0	0	484	656	
6	0	0	0	0	482	655	
7	0	0	0	0	499	655	
8	0	0	0	0	486	655	
9	0	0	0	0	500	655	
10	0	0	0	0	507	655	
11	0	0	0	0	517	655	
12	0	0	0	0	503	654	
13	0	0	0	0	512	654	
14	0	0	0	0	519	654	
15	0	0	0	0	526	654	
0	0	0	0	0	518	654	
1	0	0	0	0	505	653	
2	0	0	0	0	513	653	
3	0	0	0	0	520	653	
4	0	0	0	0	507	653	
5	0	0	0	0	524	653	
6	0	0	0	0	527	652	
7	0	0	0	0	519	652	
8	0	0	0	0	519	652	
9	0	0	0	0	512	652	
10	0	0	0	0	511	652	
11	0	0	0	0	557	651	
12	0	0	0	0	520	651	
13	0	0	0	0	512	651	
14	0	0	0	0	528	651	
15	0	0	0	0	505	651	
0	0	0	0	0	544	650	
1	0	0	0	0	545	650	
2	0	0	0	0	505	650	
3	0	0	0	0	517	650	
4	0	0	0	0	498	649	
5	0	0	0	0	470	649	
6	0	0	0	0	481	649	
7	0	0	0	0	474	649	
8	0	0	0	0	482	648	
9	0	0	0	0	477	648	
10	0	0	0	0	495	648	
11	0	0	0	0	464	648	
12	0	0	0	0	460	647	
13	0	0	0	0	549	647	
14	0	0	0	0	670	647	
15	0	0	0	0	609	647	
0	0	0	0	0	471	647	
1	0	0	0	0	405	647	
2	0	0	0	0	466	647	
3	0	0	0	0	495	647	
4	0	0	0	0	483	646	
5	0	0	0	0	498	646	
6	0	0	0	0	492	646	
7	0	0	0	0	487	645	
8	0	0	0	0	498	645	
9	0	0	0	0	489	645	
10	0	0	0	0	490	645	
11	0	0	0	0	476	645	
12	0	0	0	0	494	644	
13	0	0	0	0	515	644	
14	0	0	0	0	482	644	
15	0	0	0	0	519	644	
0	0	0	0	0	526	643	
1	0	0	0	0	528	643	
2	0	0	0	0	539	643	
3	0	0	0	0	537	643	
4	0	0	0	0	564	643	
5	0	0	0	0	564	643	
6	0	0	0	0	566	642	
7	0	0	0	0	586	642	
8	0	0	0	0	567	642	
9	0	0	0	0	518	642	
10	0	0	0	0	483	641	
11	0	0	0	0	476	641	
12	0	0	0	0	481	641	
13	0	0	0	0	470	641	
14	0	0	0	0	482	641	
15	0	0	0	0	468	640	
0	0	0	0	0	474	640	
1	0	0	0	0	492	640	
2	0	0	0	0	495	640	
3	0	0	0	0	495	639	
4	0	0	0	0	526	639	
5	0	0	0	0	515	639	
6	0	0	0	0	492	639	
7	0	0	0	0	514	639	
8	0	0	0	0	527	639	
9	0	0	0	0	531	639	
10	0	0	0	0	535	638	
11	0	0	0	0	535	638	
12	0	0	0	0	537	638	
13	0	0	0	0	542	638	
14	0	0	0	0	534	638	
15	0	0	0	0	521	637	
0	0	0	0	0	535	637	
1	0	0	0	0	540	637	
2	0	0	0	0	534	637	
3	0	0	0	0	530	636	
4	0	0	0	0	534	636	
5	0	0	0	0	525	636	
6	0	0	0	0	532	636	
7	0	0	0	0	524	636	
8	0	0	0	0	537	636	
9	0	0	0	0	528	636	
10	0	0	0	0	536	636	
11	0	0	0	0	541	635	
12	0	0	0	0	519	635	
13	0	0	0	0	556	635	
14	0	0	0	0	565	635	
15	0	0	0	0	543	634	
0	0	0	0	0	534	634	
1	0	0	0	0	509	634	
2	0	0	0	0	523	634	
3	0	0	0	0	486	633	
4	0	0	0	0	500	633	
5	0	0	0	0	463	633	
6	0	0	0	0	523	633	
7	0	0	0	0	502	633	
8	0	0	0	0	499	632	
9	0	0	0	0	480	632	
10	0	0	0	0	544	632	
11	0	0	0	0	669	632	
12	0	0	0	0	683	632	
13	0	0	0	0	520	632	
14	0	0	0	0	409	632	
15	0	0	0	0	430	632	
0	0	0	0	0	465	631	
1	0	0	0	0	486	631	
2	0	0	0	0	489	631	
3	0	0	0	0	499	631	
4	0	0	0	0	512	631	
5	0	0	0	0	501	631	
6	0	0	0	0	507	631	
7	0	0	0	0	473	630	
8	0	0	0	0	520	630	
9	0	0	0	0	511	630	
10	0	0	0	0	520	630	
11	0	0	0	0	497	630	
12	0	0	0	0	536	629	
13	0	0	0	0	519	629	
14	0	0	0	0	522	629	
15	0	0	0	0	535	629	
0	0	0	0	0	538	629	
1	0	0	0	0	547	629	
2	0	0	0	0	556	628	
3	0	0	0	0	535	628	
4	0	0	0	0	563	628	
5	0	0	0	0	517	628	
6	0	0	0	0	522	628	
7	0	0	0	0	477	628	
8	0	0	0	0	474	627	
9	0	0	0	0	457	628	
10	0	0	0	0	453	627	
11	0	0	0	0	461	627	
12	0	0	0	0	460	627	
13	0	0	0	0	459	627	
14	0	0	0	0	472	627	
15	0	0	0	0	452	627	
0	0	0	0	0	469	627	
1	0	0	0	0	447	627	
2	0	0	0	0	465	626	
3	0	0	0	0	473	626	
4	0	0	0	0	484	626	
5	0	0	0	0	476	626	
6	0	0	0	0	463	625	
7	0	0	0	0	478	625	
8	0	0	0	0	489	625	
9	0	0	0	0	499	625	
10	0	0	0	0	488	625	
11	0	0	0	0	497	625	
12	0	0	0	0	513	625	
13	0	0	0	0	512	625	
14	0	0	0	0	499	625	
15	0	0	0	0	501	625	
0	0	0	0	0	499	624	
1	0	0	0	0	508	624	
2	0	0	0	0	511	624	
3	0	0	0	0	513	624	
4	0	0	0	0	502	624	
5	0	0	0	0	512	624	
6	0	0	0	0	510	624	
7	0	0	0	0	496	624	
8	0	0	0	0	524	624	
9	0	0	0	0	516	624	
10	0	0	0	0	519	623	
11	0	0	0	0	526	623	
12	0	0	0	0	531	623	
13	0	0	0	0	521	623	
14	0	0	0	0	511	623	
15	0	0	0	0	568	623	
0	0	0	0	0	553	623	
1	0	0	0	0	546	623	
2	0	0	0	0	525	622	
3	0	0	0	0	521	622	
4	0	0	0	0	504	622	
5	0	0	0	0	501	623	
6	0	0	0	0	516	622	
7	0	0	0	0	512	622	
8	0	0	0	0	507	622	
9	0	0	0	0	509	622	
10	0	0	0	0	499	622	
11	0	0	0	0	477	622	
12	0	0	0	0	619	622	
13	0	0	0	0	696	622	
14	0	0	0	0	609	621	
15	0	0	0	0	462	621	
0	0	0	0	0	423	621	
1	0	0	0	0	457	621	
2	0	0	0	0	490	621	
3	0	0	0	0	501	621	
4	0	0	0	0	505	621	
5	0	0	0	0	506	620	
6	0	0	0	0	499	620	
7	0	0	0	0	514	620	
8	0	0	0	0	499	620	
9	0	0	0	0	506	620	
10	0	0	0	0	520	620	
11	0	0	0	0	529	620	
12	0	0	0	0	493	620	
13	0	0	0	0	534	620	
14	0	0	0	0	537	620	
15	0	0	0	0	519	620	
0	0	0	0	0	529	620	
1	0	0	0	0	566	620	
2	0	0	0	0	536	620	
3	0	0	0	0	553	620	
4	0	0	0	0	551	619	
5	0	0	0	0	561	619	
6	0	0	0	0	551	619	
7	0	0	0	0	549	619	
8	0	0	0	0	519	619	
9	0	0	0	0	494	619	
10	0	0	0	0	483	619	
11	0	0	0	0	465	619	
12	0	0	0	0	449	619	
13	0	0	0	0	446	619	
14	0	0	0	0	472	619	
15	0	0	0	0	449	618	
0	0	0	0	0	455	618	
1	0	0	0	0	478	619	
2	0	0	0	0	479	618	
3	0	0	0	0	490	618	
4	0	0	0	0	472	618	
5	0	0	0	0	516	618	
6	0	0	0	0	503	618	
7	0	0	0	0	499	618	
8	0	0	0	0	495	618	
9	0	0	0	0	490	617	
10	0	0	0	0	512	617	
11	0	0	0	0	502	617	
12	0	0	0	0	493	617	
13	0	0	0	0	520	617	
14	0	0	0	0	495	617	
15	0	0	0	0	502	617	
0	0	0	0	0	485	617	
1	0	0	0	0	502	617	
2	0	0	0	0	514	617	
3	0	0	0	0	521	617	
4	0	0	0	0	511	617	
5	0	0	0	0	526	616	
6	0	0	0	0	516	616	
7	0	0	0	0	493	616	
8	0	0	0	0	503	616	
9	0	0	0	0	506	616	
10	0	0	0	0	524	616	
11	0	0	0	0	512	616	
12	0	0	0	0	518	616	
13	0	0	0	0	504	616	
14	0	0	0	0	519	616	
15	0	0	0	0	512	616	
0	0	0	0	0	513	615	
1	0	0	0	0	516	615	
2	0	0	0	0	522	615	
3	0	0	0	0	520	615	
4	0	0	0	0	538	615	
5	0	0	0	0	521	615	
6	0	0	0	0	504	615	
7	0	0	0	0	504	615	
8	0	0	0	0	501	615	
9	0	0	0	0	502	615	
10	0	0	0	0	487	615	
11	0	0	0	0	493	615	
12	0	0	0	0	483	615	
13	0	0	0	0	494	615	
14	0	0	0	0	493	615	
15	0	0	0	0	479	615	
0	0	0	0	0	486	615	
1	0	0	0	0	606	615	
2	0	0	0	0	718	615	
3	0	0	0	0	622	614	
4	0	0	0	0	470	615	
5	0	0	0	0	410	614	
6	0	0	0	0	461	614	
7	0	0	0	0	457	614	
8	0	0	0	0	510	614	
9	0	0	0	0	493	614	
10	0	0	0	0	505	614	
11	0	0	0	0	504	614	
12	0	0	0	0	493	614	
13	0	0	0	0	507	614	
14	0	0	0	0	508	614	
15	0	0	0	0	524	614	
0	0	0	0	0	516	614	
1	0	0	0	0	523	614	
2	0	0	0	0	522	613	
3	0	0	0	0	503	613	
4	0	0	0	0	515	613	
5	0	0	0	0	543	613	
6	0	0	0	0	525	613	
7	0	0	0	0	536	613	
8	0	0	0	0	543	613	
9	0	0	0	0	553	613	
10	0	0	0	0	547	613	
11	0	0	0	0	556	613	
12	0	0	0	0	515	613	
13	0	0	0	0	510	613	
14	0	0	0	0	491	613	
15	0	0	0	0	457	613	
0	0	0	0	0	426	613	
1	0	0	0	0	443	613	
2	0	0	0	0	443	613	
3	0	0	0	0	442	613	
4	0	0	0	0	435	613	
5	0	0	0	0	458	613	
6	0	0	0	0	455	613	
7	0	0	0	0	470	613	
8	0	0	0	0	448	613	
9	0	0	0	0	470	613	
10	0	0	0	0	468	613	
11	0	0	0	0	469	613	
12	0	0	0	0	483	613	
13	0	0	0	0	471	613	
14	0	0	0	0	468	614	
15	0	0	0	0	496	614	
0	0	0	0	0	482	614	
1	0	0	0	0	476	614	
2	0	0	0	0	496	614	
3	0	0	0	0	483	614	
4	0	0	0	0	465	614	
5	0	0	0	0	480	615	
6	0	0	0	0	482	615	
7	0	0	0	0	467	615	
8	0	0	0	0	483	615	
9	0	0	0	0	462	615	
10	0	0	0	0	477	615	
11	0	0	0	0	463	615	
12	0	0	0	0	463	616	
13	0	0	0	0	497	616	
14	0	0	0	0	479	616	
15	0	0	0	0	498	616	
0	0	0	0	0	494	617	
1	0	0	0	0	503	617	
2	0	0	0	0	487	617	
3	0	0	0	0	453	618	
4	0	0	0	0	461	618	
5	0	0	0	0	454	618	
6	0	0	0	0	479	619	
7	0	0	0	0	451	619	
8	0	0	0	0	476	620	
9	0	0	0	0	439	620	
10	0	0	0	0	449	620	
11	0	0	0	0	462	620	
12	0	0	0	0	529	621	
13	0	0	0	0	624	621	
14	0	0	0	0	619	621	
15	0	0	0	0	429	622	
0	0	0	0	0	384	622	
1	0	0	0	0	420	622	
2	0	0	0	0	448	623	
3	0	0	0	0	452	623	
4	0	0	0	0	452	624	
5	0	0	0	0	460	624	
6	0	0	0	0	467	624	
7	0	0	0	0	468	625	
8	0	0	0	0	480	625	
9	0	0	0	0	488	625	
10	0	0	0	0	473	626	
11	0	0	0	0	480	626	
12	0	0	0	0	462	627	
13	0	0	0	0	494	627	
14	0	0	0	0	476	627	
15	0	0	0	0	470	627	
0	0	0	0	0	494	628	
1	0	0	0	0	495	628	
2	0	0	0	0	524	628	
3	0	0	0	0	505	629	
4	0	0	0	0	524	630	
5	0	0	0	0	518	630	
6	0	0	0	0	533	630	
7	0	0	0	0	514	630	
8	0	0	0	0	486	631	
9	0	0	0	0	479	631	
10	0	0	0	0	445	631	
11	0	0	0	0	422	632	
12	0	0	0	0	451	632	
13	0	0	0	0	436	632	
14	0	0	0	0	423	632	
15	0	0	0	0	433	632	
0	0	0	0	0	454	633	
1	0	0	0	0	446	633	
2	0	0	0	0	472	633	
3	0	0	0	0	459	634	
4	0	0	0	0	486	634	
5	0	0	0	0	482	634	
6	0	0	0	0	485	635	
7	0	0	0	0	474	635	
8	0	0	0	0	483	635	
9	0	0	0	0	500	635	
10	0	0	0	0	483	635	
11	0	0	0	0	507	636	
12	0	0	0	0	493	636	
13	0	0	0	0	496	636	
14	0	0	0	0	502	636	
15	0	0	0	0	486	636	
0	0	0	0	0	504	636	
1	0	0	0	0	522	636	
2	0	0	0	0	484	636	
3	0	0	0	0	495	637	
4	0	0	0	0	507	637	
5	0	0	0	0	507	637	
6	0	0	0	0	494	637	
7	0	0	0	0	501	637	
8	0	0	0	0	478	637	
9	0	0	0	0	518	638	
10	0	0	0	0	488	638	
11	0	0	0	0	540	638	
12	0	0	0	0	521	638	
13	0	0	0	0	527	638	
14	0	0	0	0	547	638	
15	0	0	0	0	529	638	
0	0	0	0	0	534	638	
1	0	0	0	0	533	638	
2	0	0	0	0	510	638	
3	0	0	0	0	505	638	
4	0	0	0	0	499	638	
5	0	0	0	0	508	638	
6	0	0	0	0	485	638	
7	0	0	0	0	509	638	
8	0	0	0	0	514	638	
9	0	0	0	0	510	638	
10	0	0	0	0	518	639	
11	0	0	0	0	660	639	
12	0	0	0	0	741	639	
13	0	0	0	0	611	639	
14	0	0	0	0	456	638	
15	0	0	0	0	438	639	
0	0	0	0	0	472	638	
1	0	0	0	0	478	639	
2	0	0	0	0	504	638	
3	0	0	0	0	484	639	
4	0	0	0	0	500	639	
5	0	0	0	0	507	638	
6	0	0	0	0	526	639	
7	0	0	0	0	508	639	
8	0	0	0	0	523	638	
9	0	0	0	0	528	638	
10	0	0	0	0	528	638	
11	0	0	0	0	527	638	
12	0	0	0	0	542	638	
13	0	0	0	0	531	638	
14	0	0	0	0	566	638	
15	0	0	0	0	576	638	
0	0	0	0	0	568	638	
1	0	0	0	0	595	638	
2	0	0	0	0	605	638	
3	0	0	0	0	613	638	
4	0	0	0	0	579	638	
5	0	0	0	0	605	638	
6	0	0	0	0	609	638	
7	0	0	0	0	542	638	
8	0	0	0	0	540	638	
9	0	0	0	0	492	638	
10	0	0	0	0	495	638	
11	0	0	0	0	505	637	
12	0	0	0	0	517	637	
13	0	0	0	0	511	637	
14	0	0	0	0	516	637	
15	0	0	0	0	527	637	
0	0	0	0	0	531	637	
1	0	0	0	0	528	637	
2	0	0	0	0	533	637	
3	0	0	0	0	544	637	
4	0	0	0	0	508	637	
5	0	0	0	0	561	636	
6	0	0	0	0	555	636	
7	0	0	0	0	555	636	
8	0	0	0	0	543	636	
9	0	0	0	0	533	636	
10	0	0	0	0	538	636	
11	0	0	0	0	544	636	
12	0	0	0	0	523	636	
13	0	0	0	0	551	636	
14	0	0	0	0	510	636	
15	0	0	0	0	532	636	
0	0	0	0	0	527	636	
1	0	0	0	0	535	636	
2	0	0	0	0	527	635	
3	0	0	0	0	539	636	
4	0	0	0	0	522	636	
5	0	0	0	0	520	636	
6	0	0	0	0	540	635	
7	0	0	0	0	533	635	
8	0	0	0	0	545	635	
9	0	0	0	0	529	635	
10	0	0	0	0	548	635	
11	0	0	0	0	541	635	
12	0	0	0	0	509	635	
13	0	0	0	0	483	635	
14	0	0	0	0	516	636	
15	0	0	0	0	496	635	
0	0	0	0	0	512	635	
1	0	0	0	0	507	635	
2	0	0	0	0	512	636	
3	0	0	0	0	493	636	
4	0	0	0	0	444	636	
5	0	0	0	0	509	636	
6	0	0	0	0	650	636	
7	0	0	0	0	660	636	
8	0	0	0	0	473	636	
9	0	0	0	0	382	636	
10	0	0	0	0	432	636	
11	0	0	0	0	444	636	
12	0	0	0	0	460	636	
13	0	0	0	0	448	637	
14	0	0	0	0	468	637	
15	0	0	0	0	479	637	
0	0	0	0	0	470	637	
1	0	0	0	0	450	638	
2	0	0	0	0	443	638	
3	0	0	0	0	440	638	
4	0	0	0	0	430	639	
5	0	0	0	0	388	639	
6	0	0	0	0	419	639	
7	0	0	0	0	427	639	
8	0	0	0	0	404	639	
9	0	0	0	0	423	640	
10	0	0	0	0	434	640	
11	0	0	0	0	440	640	
12	0	0	0	0	422	640	
13	0	0	0	0	357	641	
14	0	0	0	0	326	641	
15	0	0	0	0	321	642	
0	0	0	0	0	332	642	
1	0	0	0	0	335	643	
2	0	0	0	0	332	643	
3	0	0	0	0	303	643	
4	0	0	0	0	324	643	
5	0	0	0	0	324	643	
6	0	0	0	0	369	644	
7	0	0	0	0	373	644	
8	0	0	0	0	391	645	
9	0	0	0	0	411	645	
10	0	0	0	0	419	646	
11	0	0	0	0	438	646	
12	0	0	0	0	434	646	
13	0	0	0	0	463	646	
14	0	0	0	0	459	647	
15	0	0	0	0	489	647	
0	0	0	0	0	490	647	
1	0	0	0	0	488	648	
2	0	0	0	0	502	648	
3	0	0	0	0	509	648	
4	0	0	0	0	522	649	
5	0	0	0	0	530	649	
6	0	0	0	0	487	649	
7	0	0	0	0	424	649	
8	0	0	0	0	420	650	
9	0	0	0	0	423	650	
10	0	0	0	0	423	651	
11	0	0	0	0	445	651	
12	0	0	0	0	447	651	
13	0	0	0	0	467	651	
14	0	0	0	0	484	651	
15	0	0	0	0	504	652	
0	0	0	0	0	475	652	
1	0	0	0	0	477	652	
2	0	0	0	0	454	652	
3	0	0	0	0	449	652	
4	0	0	0	0	472	653	
5	0	0	0	0	441	653	
6	0	0	0	0	479	653	
7	0	0	0	0	485	653	
8	0	0	0	0	468	654	
9	0	0	0	0	483	654	
10	0	0	0	0	453	654	
11	0	0	0	0	539	654	
12	0	0	0	0	711	654	
13	0	0	0	0	681	654	
14	0	0	0	0	444	654	
15	0	0	0	0	337	654	
0	0	0	0	0	405	655	
1	0	0	0	0	430	655	
2	0	0	0	0	414	655	
3	0	0	0	0	418	655	
4	0	0	0	0	457	655	
5	0	0	0	0	449	655	
6	0	0	0	0	430	655	
7	0	0	0	0	450	655	
8	0	0	0	0	474	655	
9	0	0	0	0	482	655	
10	0	0	0	0	510	655	
11	0	0	0	0	527	655	
12	0	0	0	0	540	655	
13	0	0	0	0	561	655	
14	0	0	0	0	568	655	
15	0	0	0	0	587	655	
0	0	0	0	0	616	655	
1	0	0	0	0	619	655	
2	0	0	0	0	663	655	
3	0	0	0	0	644	655	
4	0	0	0	0	663	655	
5	0	0	0	0	653	655	
6	0	0	0	0	641	655	
7	0	0	0	0	594	655	
8	0	0	0	0	587	655	
9	0	0	0	0	562	655	
10	0	0	0	0	550	655	
11	0	0	0	0	551	655	
12	0	0	0	0	579	655	
13	0	0	0	0	545	655	
14	0	0	0	0	557	655	
15	0	0	0	0	555	655	
0	0	0	0	0	597	655	
1	0	0	0	0	560	655	
2	0	0	0	0	586	655	
3	0	0	0	0	591	655	
4	0	0	0	0	611	655	
5	0	0	0	0	588	655	
6	0	0	0	0	595	655	
7	0	0	0	0	599	655	
8	0	0	0	0	606	655	
9	0	0	0	0	587	654	
10	0	0	0	0	615	655	
11	0	0	0	0	601	654	
12	0	0	0	0	600	654	
13	0	0	0	0	613	654	
14	0	0	0	0	604	654	
15	0	0	0	0	596	654	
0	0	0	0	0	588	654	
1	0	0	0	0	592	654	
2	0	0	0	0	554	654	
3	0	0	0	0	506	654	
4	0	0	0	0	483	653	
5	0	0	0	0	483	653	
6	0	0	0	0	489	653	
7	0	0	0	0	446	653	
8	0	0	0	0	479	653	
9	0	0	0	0	463	653	
10	0	0	0	0	507	652	
11	0	0	0	0	495	652	
12	0	0	0	0	496	652	
13	0	0	0	0	492	652	
14	0	0	0	0	514	652	
15	0	0	0	0	469	652	
0	0	0	0	0	490	652	
1	0	0	0	0	632	652	
2	0	0	0	0	686	651	
3	0	0	0	0	541	651	
4	0	0	0	0	395	651	
5	0	0	0	0	379	651	
6	0	0	0	0	418	651	
7	0	0	0	0	463	651	
8	0	0	0	0	451	651	
9	0	0	0	0	460	650	
10	0	0	0	0	465	650	
11	0	0	0	0	492	650	
12	0	0	0	0	506	650	
13	0	0	0	0	512	649	
14	0	0	0	0	512	649	
15	0	0	0	0	525	649	
0	0	0	0	0	540	649	
1	0	0	0	0	568	649	
2	0	0	0	0	557	649	
3	0	0	0	0	570	649	
4	0	0	0	0	566	649	
5	0	0	0	0	594	648	
6	0	0	0	0	602	648	
7	0	0	0	0	600	648	
8	0	0	0	0	619	648	
9	0	0	0	0	664	648	
10	0	0	0	0	645	647	
11	0	0	0	0	639	648	
12	0	0	0	0	614	648	
13	0	0	0	0	571	647	
14	0	0	0	0	545	647	
15	0	0	0	0	550	647	
0	0	0	0	0	551	647	
1	0	0	0	0	525	647	
2	0	0	0	0	535	647	
3	0	0	0	0	520	647	
4	0	0	0	0	519	647	
5	0	0	0	0	532	647	
6	0	0	0	0	470	647	
7	0	0	0	0	495	647	
8	0	0	0	0	459	647	
9	0	0	0	0	424	647	
10	0	0	0	0	448	647	
11	0	0	0	0	458	647	
12	0	0	0	0	426	647	
13	0	0	0	0	488	647	
14	0	0	0	0	465	647	
15	0	0	0	0	491	647	
0	0	0	0	0	487	648	
1	0	0	0	0	474	648	
2	0	0	0	0	516	648	
3	0	0	0	0	536	648	
4	0	0	0	0	559	648	
5	0	0	0	0	538	648	
6	0	0	0	0	548	649	
7	0	0	0	0	569	649	
8	0	0	0	0	530	649	
9	0	0	0	0	565	649	
10	0	0	0	0	577	649	
11	0	0	0	0	506	649	
12	0	0	0	0	540	650	
13	0	0	0	0	532	650	
14	0	0	0	0	511	650	
15	0	0	0	0	532	651	
0	0	0	0	0	505	651	
1	0	0	0	0	547	651	
2	0	0	0	0	558	652	
3	0	0	0	0	526	652	
4	0	0	0	0	512	652	
5	0	0	0	0	480	652	
6	0	0	0	0	587	652	
7	0	0	0	0	741	653	
8	0	0	0	0	738	653	
9	0	0	0	0	588	653	
10	0	0	0	0	493	654	
11	0	0	0	0	555	654	
12	0	0	0	0	549	654	
13	0	0	0	0	593	654	
14	0	0	0	0	585	655	
15	0	0	0	0	580	655	
0	0	0	0	0	545	655	
1	0	0	0	0	635	655	
2	0	0	0	0	590	655	
3	0	0	0	0	587	656	
4	0	0	0	0	610	656	
5	0	0	0	0	556	656	
6	0	0	0	0	619	656	
7	0	0	0	0	583	657	
8	0	0	0	0	595	657	
9	0	0	0	0	609	657	
10	0	0	0	0	607	657	
11	0	0	0	0	612	657	
12	0	0	0	0	593	658	
13	0	0	0	0	624	658	
14	0	0	0	0	637	658	
15	0	0	0	0	599	658	
0	0	0	0	0	620	658	
1	0	0	0	0	612	659	
2	0	0	0	0	591	659	
3	0	0	0	0	575	659	
4	0	0	0	0	546	659	
5	0	0	0	0	522	659	
6	0	0	0	0	561	659	
7	0	0	0	0	541	659	
8	0	0	0	0	518	659	
9	0	0	0	0	555	659	
10	0	0	0	0	518	659	
11	0	0	0	0	541	659	
12	0	0	0	0	553	660	
13	0	0	0	0	550	660	
14	0	0	0	0	532	660	
15	0	0	0	0	544	660	
0	0	0	0	0	558	660	
1	0	0	0	0	555	660	
2	0	0	0	0	566	660	
3	0	0	0	0	545	660	
4	0	0	0	0	545	660	
5	0	0	0	0	531	660	
6	0	0	0	0	558	660	
7	0	0	0	0	535	660	
8	0	0	0	0	496	660	
9	0	0	0	0	548	660	
10	0	0	0	0	523	660	
11	0	0	0	0	540	660	
12	0	0	0	0	534	660	
13	0	0	0	0	535	660	
14	0	0	0	0	530	660	
15	0	0	0	0	539	660	
0	0	0	0	0	538	660	
1	0	0	0	0	544	660	
2	0	0	0	0	535	660	
3	0	0	0	0	549	660	
4	0	0	0	0	539	660	
5	0	0	0	0	558	660	
6	0	0	0	0	547	660	
7	0	0	0	0	562	660	
8	0	0	0	0	514	660	
9	0	0	0	0	590	660	
10	0	0	0	0	563	660	
11	0	0	0	0	565	660	
12	0	0	0	0	538	660	
13	0	0	0	0	558	660	
14	0	0	0	0	563	660	
15	0	0	0	0	539	660	
0	0	0	0	0	546	659	
1	0	0	0	0	563	659	
2	0	0	0	0	540	659	
3	0	0	0	0	543	659	
4	0	0	0	0	532	659	
5	0	0	0	0	528	659	
6	0	0	0	0	532	659	
7	0	0	0	0	519	659	
8	0	0	0	0	532	659	
9	0	0	0	0	517	659	
10	0	0	0	0	509	659	
11	0	0	0	0	510	659	
12	0	0	0	0	504	659	
13	0	0	0	0	497	659	
14	0	0	0	0	505	658	
15	0	0	0	0	503	659	
0	0	0	0	0	520	658	
1	0	0	0	0	466	658	
2	0	0	0	0	517	658	
3	0	0	0	0	506	658	
4	0	0	0	0	503	658	
5	0	0	0	0	517	658	
6	0	0	0	0	519	657	
7	0	0	0	0	508	657	
8	0	0	0	0	492	657	
9	0	0	0	0	509	657	
10	0	0	0	0	460	657	
11	0	0	0	0	473	657	
12	0	0	0	0	452	657	
13	0	0	0	0	487	656	
14	0	0	0	0	451	656	
15	0	0	0	0	485	656	
0	0	0	0	0	467	656	
1	0	0	0	0	469	656	
2	0	0	0	0	528	656	
3	0	0	0	0	672	656	
4	0	0	0	0	658	656	
5	0	0	0	0	471	655	
6	0	0	0	0	444	655	
7	0	0	0	0	449	655	
8	0	0	0	0	446	655	
9	0	0	0	0	480	655	
10	0	0	0	0	488	655	
11	0	0	0	0	482	655	
12	0	0	0	0	511	654	
13	0	0	0	0	516	654	
14	0	0	0	0	465	654	
15	0	0	0	0	521	654	
0	0	0	0	0	499	654	
1	0	0	0	0	511	654	
2	0	0	0	0	542	654	
3	0	0	0	0	522	653	
4	0	0	0	0	520	653	
5	0	0	0	0	562	653	
6	0	0	0	0	548	653	
7	0	0	0	0	565	652	
8	0	0	0	0	556	652	
9	0	0	0	0	546	652	
10	0	0	0	0	560	652	
11	0	0	0	0	577	652	
12	0	0	0	0	551	652	
13	0	0	0	0	517	651	
14	0	0	0	0	529	651	
15	0	0	0	0	465	651	
0	0	0	0	0	459	651	
1	0	0	0	0	437	651	
2	0	0	0	0	439	650	
3	0	0	0	0	403	650	
4	0	0	0	0	430	650	
5	0	0	0	0	451	650	
6	0	0	0	0	454	649	
7	0	0	0	0	417	649	
8	0	0	0	0	429	649	
9	0	0	0	0	462	649	
10	0	0	0	0	479	649	
11	0	0	0	0	465	649	
12	0	0	0	0	471	648	
13	0	0	0	0	482	648	
14	0	0	0	0	477	648	
15	0	0	0	0	459	647	
0	0	0	0	0	502	647	
1	0	0	0	0	480	647	
2	0	0	0	0	479	647	
3	0	0	0	0	475	647	
4	0	0	0	0	495	647	
5	0	0	0	0	492	647	
6	0	0	0	0	470	646	
7	0	0	0	0	484	646	
8	0	0	0	0	485	646	
9	0	0	0	0	490	646	
10	0	0	0	0	497	646	
11	0	0	0	0	466	645	
12	0	0	0	0	490	645	
13	0	0	0	0	498	645	
14	0	0	0	0	496	644	
15	0	0	0	0	491	644	
0	0	0	0	0	473	644	
1	0	0	0	0	496	644	
2	0	0	0	0	499	644	
3	0	0	0	0	474	643	
4	0	0	0	0	498	643	
5	0	0	0	0	498	643	
6	0	0	0	0	487	643	
7	0	0	0	0	510	643	
8	0	0	0	0	516	643	
9	0	0	0	0	511	643	
10	0	0	0	0	488	642	
11	0	0	0	0	500	642	
12	0	0	0	0	510	642	
13	0	0	0	0	513	641	
14	0	0	0	0	504	641	
15	0	0	0	0	507	641	
0	0	0	0	0	521	641	
1	0	0	0	0	503	641	
2	0	0	0	0	518	641	
3	0	0	0	0	526	640	
4	0	0	0	0	516	640	
5	0	0	0	0	543	640	
6	0	0	0	0	555	640	
7	0	0	0	0	552	639	
8	0	0	0	0	550	639	
9	0	0	0	0	580	639	
10	0	0	0	0	575	639	
11	0	0	0	0	570	639	
12	0	0	0	0	568	639	
13	0	0	0	0	525	639	
14	0	0	0	0	508	638	
15	0	0	0	0	529	638	
0	0	0	0	0	510	638	
1	0	0	0	0	527	638	
2	0	0	0	0	497	638	
3	0	0	0	0	508	638	
4	0	0	0	0	478	637	
5	0	0	0	0	501	637	
6	0	0	0	0	645	637	
7	0	0	0	0	689	637	
8	0	0	0	0	520	636	
9	0	0	0	0	388	636	
10	0	0	0	0	425	636	
11	0	0	0	0	451	636	
12	0	0	0	0	443	636	
13	0	0	0	0	471	636	
14	0	0	0	0	459	636	
15	0	0	0	0	480	636	
0	0	0	0	0	489	636	
1	0	0	0	0	510	635	
2	0	0	0	0	514	635	
3	0	0	0	0	499	635	
4	0	0	0	0	531	635	
5	0	0	0	0	532	635	
6	0	0	0	0	536	635	
7	0	0	0	0	568	635	
8	0	0	0	0	568	634	
9	0	0	0	0	624	634	
10	0	0	0	0	638	634	
11	0	0	0	0	645	634	
12	0	0	0	0	663	634	
13	0	0	0	0	659	634	
14	0	0	0	0	667	633	
15	0	0	0	0	666	633	
0	0	0	0	0	647	633	
1	0	0	0	0	628	633	
2	0	0	0	0	621	633	
3	0	0	0	0	559	633	
4	0	0	0	0	528	632	
5	0	0	0	0	530	632	
6	0	0	0	0	517	632	
7	0	0	0	0	505	632	
8	0	0	0	0	492	632	
9	0	0	0	0	509	632	
10	0	0	0	0	522	632	
11	0	0	0	0	511	632	
12	0	0	0	0	501	632	
13	0	0	0	0	502	631	
14	0	0	0	0	496	631	
15	0	0	0	0	490	631	
0	0	0	0	0	497	631	
1	0	0	0	0	514	631	
2	0	0	0	0	471	631	
3	0	0	0	0	457	631	
4	0	0	0	0	483	630	
5	0	0	0	0	471	630	
6	0	0	0	0	499	630	
7	0	0	0	0	437	630	
8	0	0	0	0	495	630	
9	0	0	0	0	486	630	
10	0	0	0	0	482	630	
11	0	0	0	0	479	629	
12	0	0	0	0	491	629	
13	0	0	0	0	476	629	
14	0	0	0	0	480	629	
15	0	0	0	0	471	629	
0	0	0	0	0	446	629	
1	0	0	0	0	496	629	
2	0	0	0	0	465	629	
3	0	0	0	0	476	628	
4	0	0	0	0	484	628	
5	0	0	0	0	510	628	
6	0	0	0	0	499	628	
7	0	0	0	0	484	628	
8	0	0	0	0	466	628	
9	0	0	0	0	451	628	
10	0	0	0	0	454	627	
11	0	0	0	0	455	627	
12	0	0	0	0	456	627	
13	0	0	0	0	454	627	
14	0	0	0	0	444	627	
15	0	0	0	0	444	627	
0	0	0	0	0	438	627	
1	0	0	0	0	444	627	
2	0	0	0	0	500	627	
3	0	0	0	0	572	627	
4	0	0	0	0	543	627	
5	0	0	0	0	360	627	
6	0	0	0	0	327	627	
7	0	0	0	0	390	626	
8	0	0	0	0	410	626	
9	0	0	0	0	394	626	
10	0	0	0	0	429	626	
11	0	0	0	0	444	626	
12	0	0	0	0	426	625	
13	0	0	0	0	451	625	
14	0	0	0	0	458	625	
15	0	0	0	0	463	625	
0	0	0	0	0	485	625	
1	0	0	0	0	458	625	
2	0	0	0	0	496	625	
3	0	0	0	0	513	625	
4	0	0	0	0	509	625	
5	0	0	0	0	534	625	
6	0	0	0	0	560	625	
7	0	0	0	0	557	625	
8	0	0	0	0	537	625	
9	0	0	0	0	546	625	
10	0	0	0	0	562	625	
11	0	0	0	0	540	624	
12	0	0	0	0	543	624	
13	0	0	0	0	513	624	
14	0	0	0	0	472	624	
15	0	0	0	0	404	624	
0	0	0	0	0	432	624	
1	0	0	0	0	381	624	
2	0	0	0	0	413	624	
3	0	0	0	0	420	624	
4	0	0	0	0	406	624	
5	0	0	0	0	419	624	
6	0	0	0	0	429	624	
7	0	0	0	0	455	624	
8	0	0	0	0	465	624	
9	0	0	0	0	468	624	
10	0	0	0	0	476	624	
11	0	0	0	0	489	624	
12	0	0	0	0	483	624	
13	0	0	0	0	480	624	
14	0	0	0	0	495	624	
15	0	0	0	0	500	623	
0	0	0	0	0	511	623	
1	0	0	0	0	512	623	
2	0	0	0	0	504	623	
3	0	0	0	0	497	623	
4	0	0	0	0	506	623	
5	0	0	0	0	486	623	
6	0	0	0	0	501	623	
7	0	0	0	0	516	623	
8	0	0	0	0	519	623	
9	0	0	0	0	512	623	
10	0	0	0	0	535	623	
11	0	0	0	0	531	623	
12	0	0	0	0	519	623	
13	0	0	0	0	507	623	
14	0	0	0	0	485	623	
15	0	0	0	0	472	623	
0	0	0	0	0	490	622	
1	0	0	0	0	500	622	
2	0	0	0	0	492	623	
3	0	0	0	0	505	622	
4	0	0	0	0	480	622	
5	0	0	0	0	467	622	
6	0	0	0	0	493	622	
7	0	0	0	0	581	622	
8	0	0	0	0	694	622	
9	0	0	0	0	678	622	
10	0	0	0	0	475	622	
11	0	0	0	0	407	622	
12	0	0	0	0	455	622	
13	0	0	0	0	455	622	
14	0	0	0	0	436	622	
15	0	0	0	0	499	622	
0	0	0	0	0	473	622	
1	0	0	0	0	484	622	
2	0	0	0	0	484	622	
3	0	0	0	0	484	622	
4	0	0	0	0	491	621	
5	0	0	0	0	492	621	
6	0	0	0	0	493	621	
7	0	0	0	0	503	621	
8	0	0	0	0	499	621	
9	0	0	0	0	499	621	
10	0	0	0	0	523	621	
11	0	0	0	0	517	621	
12	0	0	0	0	524	621	
13	0	0	0	0	535	621	
14	0	0	0	0	543	620	
15	0	0	0	0	537	621	
0	0	0	0	0	551	620	
1	0	0	0	0	544	620	
2	0	0	0	0	516	620	
3	0	0	0	0	489	620	
4	0	0	0	0	463	620	
5	0	0	0	0	446	620	
6	0	0	0	0	441	620	
7	0	0	0	0	415	620	
8	0	0	0	0	451	620	
9	0	0	0	0	428	620	
10	0	0	0	0	453	620	
11	0	0	0	0	464	620	
12	0	0	0	0	463	620	
13	0	0	0	0	459	620	
14	0	0	0	0	482	620	
15	0	0	0	0	480	620	
0	0	0	0	0	468	620	
1	0	0	0	0	498	620	
2	0	0	0	0	491	619	
3	0	0	0	0	484	619	
4	0	0	0	0	505	619	
5	0	0	0	0	494	620	
6	0	0	0	0	504	619	
7	0	0	0	0	497	619	
8	0	0	0	0	519	619	
9	0	0	0	0	522	619	
10	0	0	0	0	513	619	
11	0	0	0	0	545	619	
12	0	0	0	0	538	619	
13	0	0	0	0	513	619	
14	0	0	0	0	486	619	
15	0	0	0	0	517	619	
0	0	0	0	0	494	619	
1	0	0	0	0	504	619	
2	0	0	0	0	483	618	
3	0	0	0	0	510	619	
4	0	0	0	0	512	618	
5	0	0	0	0	510	618	
6	0	0	0	0	503	618	
7	0	0	0	0	502	618	
8	0	0	0	0	566	618	
9	0	0	0	0	718	618	
10	0	0	0	0	722	618	
11	0	0	0	0	534	618	
12	0	0	0	0	436	618	
13	0	0	0	0	483	618	
14	0	0	0	0	456	618	
15	0	0	0	0	484	618	
0	0	0	0	0	484	617	
1	0	0	0	0	489	617	
2	0	0	0	0	491	617	
3	0	0	0	0	520	617	
4	0	0	0	0	511	617	
5	0	0	0	0	505	617	
6	0	0	0	0	475	617	
7	0	0	0	0	519	617	
8	0	0	0	0	512	617	
9	0	0	0	0	518	617	
10	0	0	0	0	531	617	
11	0	0	0	0	518	617	
12	0	0	0	0	555	617	
13	0	0	0	0	545	617	
14	0	0	0	0	551	617	
15	0	0	0	0	547	617	
0	0	0	0	0	551	616	
1	0	0	0	0	566	616	
2	0	0	0	0	536	616	
3	0	0	0	0	542	616	
4	0	0	0	0	518	616	
5	0	0	0	0	492	616	
6	0	0	0	0	465	616	
7	0	0	0	0	451	616	
8	0	0	0	0	460	616	
9	0	0	0	0	459	616	
10	0	0	0	0	470	616	
11	0	0	0	0	434	616	
12	0	0	0	0	485	616	
13	0	0	0	0	489	615	
14	0	0	0	0	459	615	
15	0	0	0	0	488	615	
0	0	0	0	0	494	615	
1	0	0	0	0	507	615	
2	0	0	0	0	504	615	
3	0	0	0	0	496	615	
4	0	0	0	0	518	615	
5	0	0	0	0	504	615	
6	0	0	0	0	494	615	
7	0	0	0	0	499	615	
8	0	0	0	0	496	615	
9	0	0	0	0	501	615	
10	0	0	0	0	501	615	
11	0	0	0	0	496	615	
12	0	0	0	0	497	615	
13	0	0	0	0	494	615	
14	0	0	0	0	505	615	
15	0	0	0	0	521	615	
0	0	0	0	0	528	615	
1	0	0	0	0	534	615	
2	0	0	0	0	529	615	
3	0	0	0	0	515	615	
4	0	0	0	0	498	614	
5	0	0	0	0	488	615	
6	0	0	0	0	494	614	
7	0	0	0	0	472	614	
8	0	0	0	0	483	614	
9	0	0	0	0	499	614	
10	0	0	0	0	496	614	
11	0	0	0	0	499	614	
12	0	0	0	0	498	614	
13	0	0	0	0	474	614	
14	0	0	0	0	508	614	
15	0	0	0	0	648	614	
0	0	0	0	0	718	614	
1	0	0	0	0	556	614	
2	0	0	0	0	431	614	
3	0	0	0	0	400	614	
4	0	0	0	0	492	614	
5	0	0	0	0	487	614	
6	0	0	0	0	494	614	
7	0	0	0	0	498	614	
8	0	0	0	0	504	614	
9	0	0	0	0	504	614	
10	0	0	0	0	514	613	
11	0	0	0	0	513	613	
12	0	0	0	0	523	613	
13	0	0	0	0	519	613	
14	0	0	0	0	524	613	
15	0	0	0	0	540	613	
0	0	0	0	0	516	613	
1	0	0	0	0	540	613	
2	0	0	0	0	541	613	
3	0	0	0	0	542	613	
4	0	0	0	0	550	613	
5	0	0	0	0	567	613	
6	0	0	0	0	572	613	
7	0	0	0	0	567	613	
8	0	0	0	0	570	612	
9	0	0	0	0	547	612	
10	0	0	0	0	521	612	
11	0	0	0	0	507	612	
12	0	0	0	0	478	612	
13	0	0	0	0	455	612	
14	0	0	0	0	468	612	
15	0	0	0	0	453	612	
0	0	0	0	0	452	612	
1	0	0	0	0	465	612	
2	0	0	0	0	455	612	
3	0	0	0	0	486	612	
4	0	0	0	0	468	612	
5	0	0	0	0	491	612	
6	0	0	0	0	503	612	
7	0	0	0	0	479	612	
8	0	0	0	0	491	612	
9	0	0	0	0	498	612	
10	0	0	0	0	501	612	
11	0	0	0	0	479	612	
12	0	0	0	0	489	612	
13	0	0	0	0	495	611	
14	0	0	0	0	495	611	
15	0	0	0	0	496	611	
0	0	0	0	0	483	611	
1	0	0	0	0	497	611	
2	0	0	0	0	490	611	
3	0	0	0	0	502	611	
4	0	0	0	0	488	611	
5	0	0	0	0	487	611	
6	0	0	0	0	490	611	
7	0	0	0	0	512	611	
8	0	0	0	0	483	611	
9	0	0	0	0	491	611	
10	0	0	0	0	513	611	
11	0	0	0	0	503	611	
12	0	0	0	0	510	611	
13	0	0	0	0	512	611	
14	0	0	0	0	523	611	
15	0	0	0	0	520	611	
0	0	0	0	0	525	611	
1	0	0	0	0	513	611	
2	0	0	0	0	508	611	
3	0	0	0	0	499	611	
4	0	0	0	0	478	611	
5	0	0	0	0	507	611	
6	0	0	0	0	494	611	
7	0	0	0	0	498	611	
8	0	0	0	0	463	611	
9	0	0	0	0	492	611	
10	0	0	0	0	521	611	
11	0	0	0	0	467	610	
12	0	0	0	0	477	610	
13	0	0	0	0	620	611	
14	0	0	0	0	719	610	
15	0	0	0	0	599	610	
0	0	0	0	0	449	610	
1	0	0	0	0	377	610	
2	0	0	0	0	471	610	
3	0	0	0	0	465	610	
4	0	0	0	0	487	610	
5	0	0	0	0	485	610	
6	0	0	0	0	486	610	
7	0	0	0	0	484	610	
8	0	0	0	0	478	610	
9	0	0	0	0	483	610	
10	0	0	0	0	505	610	
11	0	0	0	0	495	609	
12	0	0	0	0	504	609	
13	0	0	0	0	522	610	
14	0	0	0	0	506	609	
15	0	0	0	0	513	609	
0	0	0	0	0	537	609	
1	0	0	0	0	524	609	
2	0	0	0	0	540	609	
3	0	0	0	0	532	609	
4	0	0	0	0	558	609	
5	0	0	0	0	535	609	
6	0	0	0	0	512	609	
7	0	0	0	0	564	609	
8	0	0	0	0	541	609	
9	0	0	0	0	495	609	
10	0	0	0	0	465	609	
11	0	0	0	0	448	609	
12	0	0	0	0	440	609	
13	0	0	0	0	460	609	
14	0	0	0	0	439	609	
15	0	0	0	0	434	609	
0	0	0	0	0	471	608	
1	0	0	0	0	451	609	
2	0	0	0	0	462	608	
3	0	0	0	0	459	608	
4	0	0	0	0	477	609	
5	0	0	0	0	472	608	
6	0	0	0	0	496	608	
7	0	0	0	0	461	608	
8	0	0	0	0	484	608	
9	0	0	0	0	502	608	
10	0	0	0	0	498	608	
11	0	0	0	0	489	608	
12	0	0	0	0	473	608	
13	0	0	0	0	495	608	
14	0	0	0	0	475	608	
15	0	0	0	0	502	608	
0	0	0	0	0	492	608	
1	0	0	0	0	499	608	
2	0	0	0	0	520	608	
3	0	0	0	0	485	608	
4	0	0	0	0	502	608	
5	0	0	0	0	504	608	
6	0	0	0	0	495	608	
7	0	0	0	0	501	608	
8	0	0	0	0	499	608	
9	0	0	0	0	494	608	
10	0	0	0	0	527	608	
11	0	0	0	0	529	608	
12	0	0	0	0	529	608	
13	0	0	0	0	540	608	
14	0	0	0	0	532	608	
15	0	0	0	0	521	607	
0	0	0	0	0	528	608	
1	0	0	0	0	507	607	
2	0	0	0	0	504	607	
3	0	0	0	0	501	608	
4	0	0	0	0	488	607	
5	0	0	0	0	483	607	
6	0	0	0	0	473	607	
7	0	0	0	0	512	607	
8	0	0	0	0	503	607	
9	0	0	0	0	471	607	
10	0	0	0	0	551	607	
11	0	0	0	0	679	607	
12	0	0	0	0	722	607	
13	0	0	0	0	526	607	
14	0	0	0	0	404	607	
15	0	0	0	0	455	607	
0	0	0	0	0	476	607	
1	0	0	0	0	467	607	
2	0	0	0	0	498	607	
3	0	0	0	0	480	607	
4	0	0	0	0	478	607	
5	0	0	0	0	495	607	
6	0	0	0	0	503	607	
7	0	0	0	0	494	607	
8	0	0	0	0	494	607	
9	0	0	0	0	517	607	
10	0	0	0	0	491	607	
11	0	0	0	0	507	607	
12	0	0	0	0	526	607	
13	0	0	0	0	511	607	
14	0	0	0	0	528	607	
15	0	0	0	0	541	607	
0	0	0	0	0	551	607	
1	0	0	0	0	550	607	
2	0	0	0	0	576	607	
3	0	0	0	0	560	607	
4	0	0	0	0	558	607	
5	0	0	0	0	547	607	
6	0	0	0	0	526	607	
7	0	0	0	0	501	607	
8	0	0	0	0	497	607	
9	0	0	0	0	445	607	
10	0	0	0	0	461	607	
11	0	0	0	0	454	607	
12	0	0	0	0	464	607	
13	0	0	0	0	466	607	
14	0	0	0	0	466	607	
15	0	0	0	0	479	607	
0	0	0	0	0	483	607	
1	0	0	0	0	494	607	
2	0	0	0	0	470	607	
3	0	0	0	0	504	607	
4	0	0	0	0	499	607	
5	0	0	0	0	491	607	
6	0	0	0	0	509	607	
7	0	0	0	0	486	607	
8	0	0	0	0	503	607	
9	0	0	0	0	496	607	
10	0	0	0	0	489	607	
11	0	0	0	0	480	607	
12	0	0	0	0	513	607	
13	0	0	0	0	499	607	
14	0	0	0	0	511	607	
15	0	0	0	0	508	607	
0	0	0	0	0	509	607	
1	0	0	0	0	509	607	
2	0	0	0	0	504	607	
3	0	0	0	0	506	607	
4	0	0	0	0	471	607	
5	0	0	0	0	517	607	
6	0	0	0	0	476	607	
7	0	0	0	0	510	607	
8	0	0	0	0	509	607	
9	0	0	0	0	519	607	
10	0	0	0	0	507	607	
11	0	0	0	0	519	607	
12	0	0	0	0	499	607	
13	0	0	0	0	535	607	
14	0	0	0	0	536	607	
15	0	0	0	0	532	607	
0	0	0	0	0	500	607	
1	0	0	0	0	510	607	
2	0	0	0	0	483	607	
3	0	0	0	0	485	607	
4	0	0	0	0	496	607	
5	0	0	0	0	490	607	
6	0	0	0	0	484	607	
7	0	0	0	0	504	607	
8	0	0	0	0	480	607	
9	0	0	0	0	500	607	
10	0	0	0	0	610	607	
11	0	0	0	0	738	607	
12	0	0	0	0	605	607	
13	0	0	0	0	430	607	
14	0	0	0	0	427	607	
15	0	0	0	0	468	607	
0	0	0	0	0	503	607	
1	0	0	0	0	484	607	
2	0	0	0	0	471	607	
3	0	0	0	0	516	607	
4	0	0	0	0	478	607	
5	0	0	0	0	496	607	
6	0	0	0	0	502	607	
7	0	0	0	0	490	606	
8	0	0	0	0	516	607	
9	0	0	0	0	511	607	
10	0	0	0	0	522	607	
11	0	0	0	0	508	607	
12	0	0	0	0	527	607	
13	0	0	0	0	540	607	
14	0	0	0	0	540	606	
15	0	0	0	0	553	606	
0	0	0	0	0	575	607	
1	0	0	0	0	544	606	
2	0	0	0	0	549	606	
3	0	0	0	0	564	606	
4	0	0	0	0	548	606	
5	0	0	0	0	536	606	
6	0	0	0	0	516	606	
7	0	0	0	0	472	606	
8	0	0	0	0	476	606	
9	0	0	0	0	460	606	
10	0	0	0	0	441	606	
11	0	0	0	0	444	606	
12	0	0	0	0	483	606	
13	0	0	0	0	476	606	
14	0	0	0	0	463	606	
15	0	0	0	0	501	606	
0	0	0	0	0	483	606	
1	0	0	0	0	469	606	
2	0	0	0	0	477	606	
3	0	0	0	0	492	606	
4	0	0	0	0	500	606	
5	0	0	0	0	496	606	
6	0	0	0	0	497	606	
7	0	0	0	0	503	605	
8	0	0	0	0	487	606	
9	0	0	0	0	499	605	
10	0	0	0	0	495	605	
11	0	0	0	0	517	605	
12	0	0	0	0	488	605	
13	0	0	0	0	526	605	
14	0	0	0	0	510	605	
15	0	0	0	0	485	605	
0	0	0	0	0	514	605	
1	0	0	0	0	499	605	
2	0	0	0	0	513	605	
3	0	0	0	0	486	605	
4	0	0	0	0	524	605	
5	0	0	0	0	509	604	
6	0	0	0	0	520	605	
7	0	0	0	0	526	604	
8	0	0	0	0	531	604	
9	0	0	0	0	523	604	
10	0	0	0	0	523	604	
11	0	0	0	0	486	604	
12	0	0	0	0	473	604	
13	0	0	0	0	511	604	
14	0	0	0	0	472	604	
15	0	0	0	0	508	604	
0	0	0	0	0	488	604	
1	0	0	0	0	489	604	
2	0	0	0	0	481	604	
3	0	0	0	0	457	604	
4	0	0	0	0	492	604	
5	0	0	0	0	595	604	
6	0	0	0	0	694	604	
7	0	0	0	0	560	604	
8	0	0	0	0	412	604	
9	0	0	0	0	417	604	
10	0	0	0	0	444	604	
11	0	0	0	0	463	604	
12	0	0	0	0	497	604	
13	0	0	0	0	494	604	
14	0	0	0	0	479	604	
15	0	0	0	0	474	604	
0	0	0	0	0	482	604	
1	0	0	0	0	495	604	
2	0	0	0	0	495	604	
3	0	0	0	0	495	604	
4	0	0	0	0	515	604	
5	0	0	0	0	518	604	
6	0	0	0	0	489	604	
7	0	0	0	0	520	604	
8	0	0	0	0	522	603	
9	0	0	0	0	521	603	
10	0	0	0	0	527	603	
11	0	0	0	0	568	603	
12	0	0	0	0	557	603	
13	0	0	0	0	548	603	
14	0	0	0	0	567	603	
15	0	0	0	0	546	603	
0	0	0	0	0	526	603	
1	0	0	0	0	502	603	
2	0	0	0	0	480	604	
3	0	0	0	0	454	604	
4	0	0	0	0	453	604	
5	0	0	0	0	460	604	
6	0	0	0	0	467	604	
7	0	0	0	0	455	604	
8	0	0	0	0	484	604	
9	0	0	0	0	467	604	
10	0	0	0	0	500	604	
11	0	0	0	0	460	604	
12	0	0	0	0	509	605	
13	0	0	0	0	488	605	
14	0	0	0	0	481	605	
15	0	0	0	0	498	605	
0	0	0	0	0	525	606	
1	0	0	0	0	501	606	
2	0	0	0	0	487	606	
3	0	0	0	0	516	607	
4	0	0	0	0	497	607	
5	0	0	0	0	475	607	
6	0	0	0	0	496	607	
7	0	0	0	0	517	608	
8	0	0	0	0	496	608	
9	0	0	0	0	498	608	
10	0	0	0	0	498	608	
11	0	0	0	0	502	609	
12	0	0	0	0	507	609	
13	0	0	0	0	509	610	
14	0	0	0	0	521	610	
15	0	0	0	0	476	611	
0	0	0	0	0	532	611	
1	0	0	0	0	527	611	
2	0	0	0	0	502	612	
3	0	0	0	0	480	612	
4	0	0	0	0	480	612	
5	0	0	0	0	458	613	
6	0	0	0	0	467	614	
7	0	0	0	0	470	614	
8	0	0	0	0	460	614	
9	0	0	0	0	468	615	
10	0	0	0	0	460	615	
11	0	0	0	0	439	615	
12	0	0	0	0	504	616	
13	0	0	0	0	634	616	
14	0	0	0	0	680	617	
15	0	0	0	0	474	617	
0	0	0	0	0	366	617	
1	0	0	0	0	400	618	
2	0	0	0	0	448	618	
3	0	0	0	0	436	619	
4	0	0	0	0	452	619	
5	0	0	0	0	402	620	
6	0	0	0	0	482	620	
7	0	0	0	0	458	620	
8	0	0	0	0	464	621	
9	0	0	0	0	450	621	
10	0	0	0	0	461	621	
11	0	0	0	0	455	622	
12	0	0	0	0	445	622	
13	0	0	0	0	475	623	
14	0	0	0	0	473	623	
15	0	0	0	0	481	623	
0	0	0	0	0	507	624	
1	0	0	0	0	491	624	
2	0	0	0	0	508	624	
3	0	0	0	0	512	624	
4	0	0	0	0	502	624	
5	0	0	0	0	536	625	
6	0	0	0	0	534	625	
7	0	0	0	0	511	625	
8	0	0	0	0	515	625	
9	0	0	0	0	465	626	
10	0	0	0	0	447	626	
11	0	0	0	0	455	626	
12	0	0	0	0	460	627	
13	0	0	0	0	448	627	
14	0	0	0	0	442	627	
15	0	0	0	0	453	627	
0	0	0	0	0	463	627	
1	0	0	0	0	461	627	
2	0	0	0	0	507	628	
3	0	0	0	0	465	628	
4	0	0	0	0	492	628	
5	0	0	0	0	485	628	
6	0	0	0	0	471	628	
7	0	0	0	0	475	628	
8	0	0	0	0	502	629	
9	0	0	0	0	497	629	
10	0	0	0	0	507	629	
11	0	0	0	0	483	629	
12	0	0	0	0	499	630	
13	0	0	0	0	480	629	
14	0	0	0	0	513	629	
15	0	0	0	0	499	630	
0	0	0	0	0	489	630	
1	0	0	0	0	490	630	
2	0	0	0	0	509	630	
3	0	0	0	0	499	630	
4	0	0	0	0	507	630	
5	0	0	0	0	502	630	
6	0	0	0	0	524	630	
7	0	0	0	0	499	630	
8	0	0	0	0	501	630	
9	0	0	0	0	524	630	
10	0	0	0	0	511	630	
11	0	0	0	0	514	630	
12	0	0	0	0	526	630	
13	0	0	0	0	507	630	
14	0	0	0	0	505	631	
15	0	0	0	0	519	630	
0	0	0	0	0	537	631	
1	0	0	0	0	538	630	
2	0	0	0	0	535	630	
3	0	0	0	0	534	630	
4	0	0	0	0	530	631	
5	0	0	0	0	519	631	
6	0	0	0	0	487	631	
7	0	0	0	0	461	631	
8	0	0	0	0	508	630	
9	0	0	0	0	493	630	
10	0	0	0	0	487	630	
11	0	0	0	0	498	631	
12	0	0	0	0	492	631	
13	0	0	0	0	460	630	
14	0	0	0	0	531	631	
15	0	0	0	0	660	630	
0	0	0	0	0	727	630	
1	0	0	0	0	575	630	
2	0	0	0	0	416	630	
3	0	0	0	0	451	630	
4	0	0	0	0	482	630	
5	0	0	0	0	489	630	
6	0	0	0	0	508	630	
7	0	0	0	0	503	630	
8	0	0	0	0	500	630	
9	0	0	0	0	502	630	
10	0	0	0	0	489	630	
11	0	0	0	0	529	630	
12	0	0	0	0	524	630	
13	0	0	0	0	529	630	
14	0	0	0	0	525	629	
15	0	0	0	0	524	629	
0	0	0	0	0	543	629	
1	0	0	0	0	551	629	
2	0	0	0	0	558	629	
3	0	0	0	0	526	629	
4	0	0	0	0	580	629	
5	0	0	0	0	572	629	
6	0	0	0	0	566	629	
7	0	0	0	0	568	628	
8	0	0	0	0	576	629	
9	0	0	0	0	570	628	
10	0	0	0	0	524	628	
11	0	0	0	0	521	628	
12	0	0	0	0	487	628	
13	0	0	0	0	472	628	
14	0	0	0	0	495	628	
15	0	0	0	0	469	628	
0	0	0	0	0	469	627	
1	0	0	0	0	483	627	
2	0	0	0	0	470	627	
3	0	0	0	0	488	627	
4	0	0	0	0	492	627	
5	0	0	0	0	498	627	
6	0	0	0	0	511	627	
7	0	0	0	0	489	627	
8	0	0	0	0	513	627	
9	0	0	0	0	496	627	
10	0	0	0	0	499	627	
11	0	0	0	0	510	626	
12	0	0	0	0	496	626	
13	0	0	0	0	515	626	
14	0	0	0	0	519	626	
15	0	0	0	0	509	626	
0	0	0	0	0	512	626	
1	0	0	0	0	511	625	
2	0	0	0	0	515	625	
3	0	0	0	0	513	625	
4	0	0	0	0	494	625	
5	0	0	0	0	510	625	
6	0	0	0	0	525	625	
7	0	0	0	0	520	624	
8	0	0	0	0	508	624	
9	0	0	0	0	492	624	
10	0	0	0	0	492	624	
11	0	0	0	0	513	624	
12	0	0	0	0	516	624	
13	0	0	0	0	515	624	
14	0	0	0	0	513	623	
15	0	0	0	0	507	623	
0	0	0	0	0	532	623	
1	0	0	0	0	509	623	
2	0	0	0	0	485	623	
3	0	0	0	0	512	623	
4	0	0	0	0	514	623	
5	0	0	0	0	508	622	
6	0	0	0	0	519	622	
7	0	0	0	0	482	622	
8	0	0	0	0	513	622	
9	0	0	0	0	494	622	
10	0	0	0	0	515	622	
11	0	0	0	0	508	621	
12	0	0	0	0	493	621	
13	0	0	0	0	516	621	
14	0	0	0	0	483	621	
15	0	0	0	0	499	621	
0	0	0	0	0	501	620	
1	0	0	0	0	511	620	
2	0	0	0	0	511	620	
3	0	0	0	0	516	620	
4	0	0	0	0	545	620	
5	0	0	0	0	527	620	
6	0	0	0	0	539	620	
7	0	0	0	0	531	619	
8	0	0	0	0	522	619	
9	0	0	0	0	521	619	
10	0	0	0	0	497	619	
11	0	0	0	0	499	618	
12	0	0	0	0	519	618	
13	0	0	0	0	518	618	
14	0	0	0	0	507	618	
15	0	0	0	0	503	618	
0	0	0	0	0	509	618	
1	0	0	0	0	495	618	
2	0	0	0	0	514	617	
3	0	0	0	0	652	617	
4	0	0	0	0	718	617	
5	0	0	0	0	591	617	
6	0	0	0	0	407	617	
7	0	0	0	0	439	616	
8	0	0	0	0	492	616	
9	0	0	0	0	466	616	
10	0	0	0	0	519	616	
11	0	0	0	0	513	615	
12	0	0	0	0	513	615	
13	0	0	0	0	523	615	
14	0	0	0	0	506	615	
15	0	0	0	0	497	615	
0	0	0	0	0	503	615	
1	0	0	0	0	528	615	
2	0	0	0	0	513	615	
3	0	0	0	0	530	615	
4	0	0	0	0	541	614	
5	0	0	0	0	523	614	
6	0	0	0	0	543	614	
7	0	0	0	0	521	614	
8	0	0	0	0	543	614	
9	0	0	0	0	578	613	
10	0	0	0	0	566	614	
11	0	0	0	0	573	613	
12	0	0	0	0	560	613	
13	0	0	0	0	574	613	
14	0	0	0	0	551	612	
15	0	0	0	0	526	612	
0	0	0	0	0	490	612	
1	0	0	0	0	501	612	
2	0	0	0	0	486	612	
3	0	0	0	0	459	612	
4	0	0	0	0	483	611	
5	0	0	0	0	450	612	
6	0	0	0	0	490	611	
7	0	0	0	0	463	611	
8	0	0	0	0	492	611	
9	0	0	0	0	464	611	
10	0	0	0	0	512	611	
11	0	0	0	0	500	611	
12	0	0	0	0	510	611	
13	0	0	0	0	492	611	
14	0	0	0	0	504	610	
15	0	0	0	0	470	610	
0	0	0	0	0	535	610	
1	0	0	0	0	507	610	
2	0	0	0	0	507	609	
3	0	0	0	0	513	609	
4	0	0	0	0	511	609	
5	0	0	0	0	505	609	
6	0	0	0	0	511	609	
7	0	0	0	0	522	609	
8	0	0	0	0	519	609	
9	0	0	0	0	538	609	
10	0	0	0	0	507	609	
11	0	0	0	0	493	608	
12	0	0	0	0	531	608	
13	0	0	0	0	504	608	
14	0	0	0	0	528	608	
15	0	0	0	0	518	608	
0	0	0	0	0	527	608	
1	0	0	0	0	515	608	
2	0	0	0	0	490	608	
3	0	0	0	0	518	608	
4	0	0	0	0	521	607	
5	0	0	0	0	504	608	
6	0	0	0	0	515	607	
7	0	0	0	0	524	607	
8	0	0	0	0	505	607	
9	0	0	0	0	502	607	
10	0	0	0	0	513	607	
11	0	0	0	0	498	607	
12	0	0	0	0	502	607	
13	0	0	0	0	521	607	
14	0	0	0	0	499	606	
15	0	0	0	0	490	606	
0	0	0	0	0	516	606	
1	0	0	0	0	516	606	
2	0	0	0	0	529	606	
3	0	0	0	0	482	606	
4	0	0	0	0	515	606	
5	0	0	0	0	520	606	
6	0	0	0	0	506	606	
7	0	0	0	0	544	606	
8	0	0	0	0	513	605	
9	0	0	0	0	523	605	
10	0	0	0	0	527	605	
11	0	0	0	0	520	605	
12	0	0	0	0	488	605	
13	0	0	0	0	514	605	
14	0	0	0	0	495	604	
15	0	0	0	0	492	605	
0	0	0	0	0	493	604	
1	0	0	0	0	489	604	
2	0	0	0	0	504	604	
3	0	0	0	0	489	604	
4	0	0	0	0	495	604	
5	0	0	0	0	611	604	
6	0	0	0	0	701	604	
7	0	0	0	0	606	604	
8	0	0	0	0	466	604	
9	0	0	0	0	459	604	
10	0	0	0	0	462	604	
11	0	0	0	0	466	604	
12	0	0	0	0	496	603	
13	0	0	0	0	502	603	
14	0	0	0	0	481	603	
15	0	0	0	0	497	603	
0	0	0	0	0	503	603	
1	0	0	0	0	508	603	
2	0	0	0	0	446	603	
3	0	0	0	0	500	603	
4	0	0	0	0	511	603	
5	0	0	0	0	512	603	
6	0	0	0	0	511	603	
7	0	0	0	0	507	603	
8	0	0	0	0	519	602	
9	0	0	0	0	535	602	
10	0	0	0	0	532	602	
11	0	0	0	0	545	602	
12	0	0	0	0	545	602	
13	0	0	0	0	546	602	
14	0	0	0	0	544	602	
15	0	0	0	0	569	602	
0	0	0	0	0	527	602	
1	0	0	0	0	514	601	
2	0	0	0	0	488	601	
3	0	0	0	0	464	602	
4	0	0	0	0	430	601	
5	0	0	0	0	451	601	
6	0	0	0	0	461	601	
7	0	0	0	0	456	601	
8	0	0	0	0	467	601	
9	0	0	0	0	459	601	
10	0	0	0	0	474	601	
11	0	0	0	0	468	601	
12	0	0	0	0	494	601	
13	0	0	0	0	495	600	
14	0	0	0	0	492	600	
15	0	0	0	0	486	600	
0	0	0	0	0	509	600	
1	0	0	0	0	492	600	
2	0	0	0	0	501	600	
3	0	0	0	0	492	600	
4	0	0	0	0	515	600	
5	0	0	0	0	484	600	
6	0	0	0	0	493	600	
7	0	0	0	0	522	600	
8	0	0	0	0	501	600	
9	0	0	0	0	497	600	
10	0	0	0	0	511	600	
11	0	0	0	0	506	600	
12	0	0	0	0	483	600	
13	0	0	0	0	496	600	
14	0	0	0	0	463	600	
15	0	0	0	0	524	600	
0	0	0	0	0	503	600	
1	0	0	0	0	526	599	
2	0	0	0	0	487	599	
3	0	0	0	0	545	599	
4	0	0	0	0	516	599	
5	0	0	0	0	489	599	
6	0	0	0	0	535	599	
7	0	0	0	0	510	599	
8	0	0	0	0	492	599	
9	0	0	0	0	519	599	
10	0	0	0	0	513	599	
11	0	0	0	0	507	599	
12	0	0	0	0	513	599	
13	0	0	0	0	512	599	
14	0	0	0	0	520	599	
15	0	0	0	0	516	599	
0	0	0	0	0	531	599	
1	0	0	0	0	502	599	
2	0	0	0	0	495	598	
3	0	0	0	0	522	598	
4	0	0	0	0	511	598	
5	0	0	0	0	522	598	
6	0	0	0	0	497	598	
7	0	0	0	0	507	598	
8	0	0	0	0	497	598	
9	0	0	0	0	502	598	
10	0	0	0	0	526	598	
11	0	0	0	0	518	598	
12	0	0	0	0	512	598	
13	0	0	0	0	519	598	
14	0	0	0	0	507	598	
15	0	0	0	0	511	598	
0	0	0	0	0	530	598	
1	0	0	0	0	509	598	
2	0	0	0	0	529	598	
3	0	0	0	0	498	598	
4	0	0	0	0	492	598	
5	0	0	0	0	509	597	
6	0	0	0	0	481	597	
7	0	0	0	0	486	597	
8	0	0	0	0	505	597	
9	0	0	0	0	480	597	
10	0	0	0	0	484	597	
11	0	0	0	0	472	597	
12	0	0	0	0	580	597	
13	0	0	0	0	686	597	
14	0	0	0	0	650	597	
15	0	0	0	0	446	597	
0	0	0	0	0	393	596	
1	0	0	0	0	452	597	
2	0	0	0	0	490	596	
3	0	0	0	0	481	596	
4	0	0	0	0	479	596	
5	0	0	0	0	481	596	
6	0	0	0	0	480	596	
7	0	0	0	0	500	596	
8	0	0	0	0	492	596	
9	0	0	0	0	493	596	
10	0	0	0	0	493	596	
11	0	0	0	0	500	596	
12	0	0	0	0	476	596	
13	0	0	0	0	513	596	
14	0	0	0	0	516	596	
15	0	0	0	0	532	596	
0	0	0	0	0	531	596	
1	0	0	0	0	535	596	
2	0	0	0	0	531	595	
3	0	0	0	0	547	596	
4	0	0	0	0	557	596	
5	0	0	0	0	550	596	
6	0	0	0	0	519	596	
7	0	0	0	0	532	596	
8	0	0	0	0	500	596	
9	0	0	0	0	479	595	
10	0	0	0	0	437	595	
11	0	0	0	0	438	595	
12	0	0	0	0	434	595	
13	0	0	0	0	451	595	
14	0	0	0	0	442	595	
15	0	0	0	0	455	595	
0	0	0	0	0	456	595	
1	0	0	0	0	476	595	
2	0	0	0	0	471	595	
3	0	0	0	0	478	595	
4	0	0	0	0	493	595	
5	0	0	0	0	502	595	
6	0	0	0	0	477	595	
7	0	0	0	0	500	595	
8	0	0	0	0	512	595	
9	0	0	0	0	503	595	
10	0	0	0	0	513	595	
11	0	0	0	0	506	595	
12	0	0	0	0	498	595	
13	0	0	0	0	493	595	
14	0	0	0	0	495	595	
15	0	0	0	0	513	595	
0	0	0	0	0	509	595	
1	0	0	0	0	503	595	
2	0	0	0	0	510	595	
3	0	0	0	0	507	595	
4	0	0	0	0	517	594	
5	0	0	0	0	512	594	
6	0	0	0	0	505	594	
7	0	0	0	0	516	594	
8	0	0	0	0	519	594	
9	0	0	0	0	527	594	
10	0	0	0	0	498	594	
11	0	0	0	0	510	594	
12	0	0	0	0	510	594	
13	0	0	0	0	512	594	
14	0	0	0	0	503	594	
15	0	0	0	0	527	594	
0	0	0	0	0	527	594	
1	0	0	0	0	515	594	
2	0	0	0	0	496	594	
3	0	0	0	0	521	594	
4	0	0	0	0	508	594	
5	0	0	0	0	525	594	
6	0	0	0	0	521	593	
7	0	0	0	0	533	593	
8	0	0	0	0	508	593	
9	0	0	0	0	518	593	
10	0	0	0	0	527	593	
11	0	0	0	0	540	593	
12	0	0	0	0	513	593	
13	0	0	0	0	539	593	
14	0	0	0	0	545	593	
15	0	0	0	0	506	593	
0	0	0	0	0	520	593	
1	0	0	0	0	550	593	
2	0	0	0	0	564	593	
3	0	0	0	0	577	593	
4	0	0	0	0	577	593	
5	0	0	0	0	525	593	
6	0	0	0	0	526	593	
7	0	0	0	0	532	593	
8	0	0	0	0	537	593	
9	0	0	0	0	518	593	
10	0	0	0	0	501	592	
11	0	0	0	0	513	592	
12	0	0	0	0	510	592	
13	0	0	0	0	499	592	
14	0	0	0	0	503	592	
15	0	0	0	0	556	592	
0	0	0	0	0	708	592	
1	0	0	0	0	711	592	
2	0	0	0	0	524	592	
3	0	0	0	0	423	592	
4	0	0	0	0	457	592	
5	0	0	0	0	465	592	
6	0	0	0	0	493	592	
7	0	0	0	0	475	592	
8	0	0	0	0	487	592	
9	0	0	0	0	490	592	
10	0	0	0	0	502	592	
11	0	0	0	0	500	592	
12	0	0	0	0	503	592	
13	0	0	0	0	496	592	
14	0	0	0	0	493	592	
15	0	0	0	0	510	591	
0	0	0	0	0	504	591	
1	0	0	0	0	507	591	
2	0	0	0	0	502	591	
3	0	0	0	0	508	591	
4	0	0	0	0	510	591	
5	0	0	0	0	535	591	
6	0	0	0	0	536	591	
7	0	0	0	0	532	591	
8	0	0	0	0	563	591	
9	0	0	0	0	543	591	
10	0	0	0	0	540	591	
11	0	0	0	0	511	591	
12	0	0	0	0	505	591	
13	0	0	0	0	457	591	
14	0	0	0	0	441	591	
15	0	0	0	0	445	591	
0	0	0	0	0	446	591	
1	0	0	0	0	442	591	
2	0	0	0	0	455	591	
3	0	0	0	0	446	591	
4	0	0	0	0	459	591	
5	0	0	0	0	448	591	
6	0	0	0	0	440	591	
7	0	0	0	0	480	591	
8	0	0	0	0	479	591	
9	0	0	0	0	496	591	
10	0	0	0	0	466	591	
11	0	0	0	0	483	591	
12	0	0	0	0	494	590	
13	0	0	0	0	483	590	
14	0	0	0	0	491	591	
15	0	0	0	0	491	590	
0	0	0	0	0	499	590	
1	0	0	0	0	484	590	
2	0	0	0	0	497	590	
3	0	0	0	0	501	590	
4	0	0	0	0	483	590	
5	0	0	0	0	485	590	
6	0	0	0	0	498	590	
7	0	0	0	0	495	590	
8	0	0	0	0	498	590	
9	0	0	0	0	497	590	
10	0	0	0	0	515	590	
11	0	0	0	0	483	590	
12	0	0	0	0	517	590	
13	0	0	0	0	515	590	
14	0	0	0	0	523	590	
15	0	0	0	0	504	590	
0	0	0	0	0	497	590	
1	0	0	0	0	502	590	
2	0	0	0	0	492	589	
3	0	0	0	0	503	590	
4	0	0	0	0	514	589	
5	0	0	0	0	495	589	
6	0	0	0	0	512	589	
7	0	0	0	0	512	589	
8	0	0	0	0	505	589	
9	0	0	0	0	495	589	
10	0	0	0	0	523	589	
11	0	0	0	0	510	589	
12	0	0	0	0	501	589	
13	0	0	0	0	537	589	
14	0	0	0	0	528	589	
15	0	0	0	0	526	589	
0	0	0	0	0	532	589	
1	0	0	0	0	529	589	
2	0	0	0	0	499	589	
3	0	0	0	0	469	589	
4	0	0	0	0	495	589	
5	0	0	0	0	508	588	
6	0	0	0	0	491	588	
7	0	0	0	0	523	588	
8	0	0	0	0	501	588	
9	0	0	0	0	480	588	
10	0	0	0	0	497	588	
11	0	0	0	0	674	588	
12	0	0	0	0	680	588	
13	0	0	0	0	501	588	
14	0	0	0	0	415	588	
15	0	0	0	0	453	588	
0	0	0	0	0	474	588	
1	0	0	0	0	479	588	
2	0	0	0	0	481	588	
3	0	0	0	0	490	588	
4	0	0	0	0	514	588	
5	0	0	0	0	487	588	
6	0	0	0	0	505	588	
7	0	0	0	0	500	588	
8	0	0	0	0	500	588	
9	0	0	0	0	509	588	
10	0	0	0	0	499	588	
11	0	0	0	0	534	588	
12	0	0	0	0	524	588	
13	0	0	0	0	535	588	
14	0	0	0	0	521	587	
15	0	0	0	0	536	587	
0	0	0	0	0	532	588	
1	0	0	0	0	553	588	
2	0	0	0	0	574	588	
3	0	0	0	0	570	587	
4	0	0	0	0	548	587	
5	0	0	0	0	519	587	
6	0	0	0	0	531	587	
7	0	0	0	0	507	587	
8	0	0	0	0	466	587	
9	0	0	0	0	460	587	
10	0	0	0	0	463	587	
11	0	0	0	0	454	587	
12	0	0	0	0	443	587	
13	0	0	0	0	471	587	
14	0	0	0	0	466	587	
15	0	0	0	0	483	587	
0	0	0	0	0	479	587	
1	0	0	0	0	464	587	
2	0	0	0	0	511	587	
3	0	0	0	0	480	587	
4	0	0	0	0	501	587	
5	0	0	0	0	493	587	
6	0	0	0	0	490	587	
7	0	0	0	0	501	587	
8	0	0	0	0	484	586	
9	0	0	0	0	516	586	
10	0	0	0	0	513	586	
11	0	0	0	0	493	586	
12	0	0	0	0	518	586	
13	0	0	0	0	494	586	
14	0	0	0	0	476	586	
15	0	0	0	0	503	586	
0	0	0	0	0	507	586	
1	0	0	0	0	510	586	
2	0	0	0	0	511	586	
3	0	0	0	0	522	586	
4	0	0	0	0	494	586	
5	0	0	0	0	510	586	
6	0	0	0	0	498	586	
7	0	0	0	0	505	586	
8	0	0	0	0	498	586	
9	0	0	0	0	507	586	
10	0	0	0	0	505	585	
11	0	0	0	0	518	585	
12	0	0	0	0	509	585	
13	0	0	0	0	524	585	
14	0	0	0	0	542	585	
15	0	0	0	0	517	585	
0	0	0	0	0	518	585	
1	0	0	0	0	517	585	
2	0	0	0	0	510	585	
3	0	0	0	0	470	585	
4	0	0	0	0	482	585	
5	0	0	0	0	505	585	
6	0	0	0	0	502	585	
7	0	0	0	0	513	585	
8	0	0	0	0	496	585	
9	0	0	0	0	487	585	
10	0	0	0	0	496	585	
11	0	0	0	0	599	585	
12	0	0	0	0	690	585	
13	0	0	0	0	653	585	
14	0	0	0	0	460	585	
15	0	0	0	0	414	585	
0	0	0	0	0	476	584	
1	0	0	0	0	468	584	
2	0	0	0	0	506	585	
3	0	0	0	0	494	584	
4	0	0	0	0	508	584	
5	0	0	0	0	495	584	
6	0	0	0	0	508	584	
7	0	0	0	0	499	584	
8	0	0	0	0	516	584	
9	0	0	0	0	493	584	
10	0	0	0	0	513	584	
11	0	0	0	0	516	584	
12	0	0	0	0	505	584	
13	0	0	0	0	514	584	
14	0	0	0	0	525	584	
15	0	0	0	0	524	584	
0	0	0	0	0	540	584	
1	0	0	0	0	549	584	
2	0	0	0	0	544	584	
3	0	0	0	0	547	584	
4	0	0	0	0	562	584	
5	0	0	0	0	546	584	
6	0	0	0	0	546	583	
7	0	0	0	0	522	583	
8	0	0	0	0	496	583	
9	0	0	0	0	465	583	
10	0	0	0	0	438	583	
11	0	0	0	0	464	583	
12	0	0	0	0	408	583	
13	0	0	0	0	472	583	
14	0	0	0	0	472	583	
15	0	0	0	0	468	583	
0	0	0	0	0	463	583	
1	0	0	0	0	463	583	
2	0	0	0	0	502	583	
3	0	0	0	0	491	583	
4	0	0	0	0	462	583	
5	0	0	0	0	466	583	
6	0	0	0	0	520	583	
7	0	0	0	0	501	583	
8	0	0	0	0	504	583	
9	0	0	0	0	507	583	
10	0	0	0	0	499	583	
11	0	0	0	0	502	583	
12	0	0	0	0	509	583	
13	0	0	0	0	507	583	
14	0	0	0	0	505	583	
15	0	0	0	0	506	583	
0	0	0	0	0	512	583	
1	0	0	0	0	498	583	
2	0	0	0	0	494	583	
3	0	0	0	0	500	582	
4	0	0	0	0	535	582	
5	0	0	0	0	480	582	
6	0	0	0	0	519	582	
7	0	0	0	0	482	582	
8	0	0	0	0	527	582	
9	0	0	0	0	515	582	
10	0	0	0	0	513	582	
11	0	0	0	0	515	582	
12	0	0	0	0	509	582	
13	0	0	0	0	516	582	
14	0	0	0	0	510	582	
15	0	0	0	0	519	582	
0	0	0	0	0	519	582	
1	0	0	0	0	540	582	
2	0	0	0	0	519	582	
3	0	0	0	0	533	582	
4	0	0	0	0	494	582	
5	0	0	0	0	504	582	
6	0	0	0	0	487	582	
7	0	0	0	0	495	582	
8	0	0	0	0	490	582	
9	0	0	0	0	502	582	
10	0	0	0	0	497	581	
11	0	0	0	0	463	581	
12	0	0	0	0	483	582	
13	0	0	0	0	557	581	
14	0	0	0	0	685	581	
15	0	0	0	0	695	581	
0	0	0	0	0	500	581	
1	0	0	0	0	407	581	
2	0	0	0	0	438	581	
3	0	0	0	0	480	581	
4	0	0	0	0	467	581	
5	0	0	0	0	488	581	
6	0	0	0	0	502	581	
7	0	0	0	0	490	581	
8	0	0	0	0	503	581	
9	0	0	0	0	519	581	
10	0	0	0	0	498	581	
11	0	0	0	0	500	580	
12	0	0	0	0	519	580	
13	0	0	0	0	505	580	
14	0	0	0	0	524	580	
15	0	0	0	0	527	580	
0	0	0	0	0	528	580	
1	0	0	0	0	516	580	
2	0	0	0	0	535	580	
3	0	0	0	0	549	580	
4	0	0	0	0	545	580	
5	0	0	0	0	566	580	
6	0	0	0	0	565	580	
7	0	0	0	0	548	580	
8	0	0	0	0	539	580	
9	0	0	0	0	526	580	
10	0	0	0	0	488	580	
11	0	0	0	0	466	580	
12	0	0	0	0	467	580	
13	0	0	0	0	455	580	
14	0	0	0	0	458	579	
15	0	0	0	0	464	580	
0	0	0	0	0	460	580	
1	0	0	0	0	467	579	
2	0	0	0	0	466	579	
3	0	0	0	0	479	579	
4	0	0	0	0	490	579	
5	0	0	0	0	487	579	
6	0	0	0	0	492	579	
7	0	0	0	0	487	579	
8	0	0	0	0	496	579	
9	0	0	0	0	453	579	
10	0	0	0	0	494	579	
11	0	0	0	0	497	579	
12	0	0	0	0	506	579	
13	0	0	0	0	511	579	
14	0	0	0	0	504	579	
15	0	0	0	0	488	579	
0	0	0	0	0	515	579	
1	0	0	0	0	491	579	
2	0	0	0	0	487	579	
3	0	0	0	0	509	579	
4	0	0	0	0	505	579	
5	0	0	0	0	497	579	
6	0	0	0	0	515	579	
7	0	0	0	0	495	579	
8	0	0	0	0	509	579	
9	0	0	0	0	473	579	
10	0	0	0	0	509	578	
11	0	0	0	0	511	578	
12	0	0	0	0	510	578	
13	0	0	0	0	496	578	
14	0	0	0	0	536	578	
15	0	0	0	0	506	578	
0	0	0	0	0	503	578	
1	0	0	0	0	521	578	
2	0	0	0	0	547	578	
3	0	0	0	0	530	578	
4	0	0	0	0	511	578	
5	0	0	0	0	513	578	
6	0	0	0	0	512	578	
7	0	0	0	0	483	578	
8	0	0	0	0	509	578	
9	0	0	0	0	486	578	
10	0	0	0	0	503	578	
11	0	0	0	0	500	577	
12	0	0	0	0	486	577	
13	0	0	0	0	491	577	
14	0	0	0	0	486	578	
15	0	0	0	0	549	577	
0	0	0	0	0	705	577	
1	0	0	0	0	683	577	
2	0	0	0	0	494	577	
3	0	0	0	0	417	577	
4	0	0	0	0	448	577	
5	0	0	0	0	485	577	
6	0	0	0	0	469	577	
7	0	0	0	0	462	577	
8	0	0	0	0	504	577	
9	0	0	0	0	503	577	
10	0	0	0	0	500	577	
11	0	0	0	0	495	577	
12	0	0	0	0	519	577	
13	0	0	0	0	502	577	
14	0	0	0	0	504	577	
15	0	0	0	0	522	577	
0	0	0	0	0	517	577	
1	0	0	0	0	517	577	
2	0	0	0	0	505	577	
3	0	0	0	0	551	577	
4	0	0	0	0	524	576	
5	0	0	0	0	552	576	
6	0	0	0	0	546	576	
7	0	0	0	0	547	576	
8	0	0	0	0	563	576	
9	0	0	0	0	547	576	
10	0	0	0	0	537	576	
11	0	0	0	0	513	576	
12	0	0	0	0	476	576	
13	0	0	0	0	481	576	
14	0	0	0	0	455	576	
15	0	0	0	0	455	576	
0	0	0	0	0	482	576	
1	0	0	0	0	447	576	
2	0	0	0	0	472	576	
3	0	0	0	0	480	576	
4	0	0	0	0	463	576	
5	0	0	0	0	455	576	
6	0	0	0	0	484	576	
7	0	0	0	0	502	575	
8	0	0	0	0	481	575	
9	0	0	0	0	492	575	
10	0	0	0	0	489	575	
11	0	0	0	0	501	575	
12	0	0	0	0	498	575	
13	0	0	0	0	465	575	
14	0	0	0	0	499	575	
15	0	0	0	0	495	575	
0	0	0	0	0	500	575	
1	0	0	0	0	497	575	
2	0	0	0	0	522	575	
3	0	0	0	0	492	575	
4	0	0	0	0	508	575	
5	0	0	0	0	523	575	
6	0	0	0	0	530	575	
7	0	0	0	0	499	575	
8	0	0	0	0	520	575	
9	0	0	0	0	505	575	
10	0	0	0	0	498	575	
11	0	0	0	0	522	575	
12	0	0	0	0	508	575	
13	0	0	0	0	515	575	
14	0	0	0	0	501	575	
15	0	0	0	0	513	575	
0	0	0	0	0	514	575	
1	0	0	0	0	522	575	
2	0	0	0	0	504	575	
3	0	0	0	0	521	574	
4	0	0	0	0	536	574	
5	0	0	0	0	511	574	
6	0	0	0	0	518	574	
7	0	0	0	0	504	574	
8	0	0	0	0	527	574	
9	0	0	0	0	484	574	
10	0	0	0	0	510	574	
11	0	0	0	0	487	574	
12	0	0	0	0	511	574	
13	0	0	0	0	501	574	
14	0	0	0	0	478	574	
15	0	0	0	0	459	574	
0	0	0	0	0	484	574	
1	0	0	0	0	530	574	
2	0	0	0	0	623	574	
3	0	0	0	0	742	574	
4	0	0	0	0	577	574	
5	0	0	0	0	430	574	
6	0	0	0	0	412	573	
7	0	0	0	0	489	573	
8	0	0	0	0	455	573	
9	0	0	0	0	469	573	
10	0	0	0	0	499	574	
11	0	0	0	0	460	573	
12	0	0	0	0	512	573	
13	0	0	0	0	507	573	
14	0	0	0	0	495	573	
15	0	0	0	0	513	573	
0	0	0	0	0	518	573	
1	0	0	0	0	524	573	
2	0	0	0	0	510	573	
3	0	0	0	0	526	573	
4	0	0	0	0	518	573	
5	0	0	0	0	522	573	
6	0	0	0	0	540	573	
7	0	0	0	0	539	573	
8	0	0	0	0	550	572	
9	0	0	0	0	562	573	
10	0	0	0	0	557	572	
11	0	0	0	0	553	572	
12	0	0	0	0	553	572	
13	0	0	0	0	506	572	
14	0	0	0	0	529	572	
15	0	0	0	0	469	572	
0	0	0	0	0	454	572	
1	0	0	0	0	436	572	
2	0	0	0	0	461	572	
3	0	0	0	0	444	572	
4	0	0	0	0	474	572	
5	0	0	0	0	456	572	
6	0	0	0	0	455	572	
7	0	0	0	0	483	572	
8	0	0	0	0	474	572	
9	0	0	0	0	483	572	
10	0	0	0	0	479	572	
11	0	0	0	0	504	572	
12	0	0	0	0	512	572	
13	0	0	0	0	494	572	
14	0	0	0	0	498	572	
15	0	0	0	0	498	572	
0	0	0	0	0	498	572	
1	0	0	0	0	479	572	
2	0	0	0	0	506	572	
3	0	0	0	0	510	571	
4	0	0	0	0	493	571	
5	0	0	0	0	538	571	
6	0	0	0	0	504	571	
7	0	0	0	0	487	571	
8	0	0	0	0	477	571	
9	0	0	0	0	530	571	
10	0	0	0	0	506	571	
11	0	0	0	0	514	571	
12	0	0	0	0	506	571	
13	0	0	0	0	504	571	
14	0	0	0	0	536	571	
15	0	0	0	0	511	571	
0	0	0	0	0	535	571	
1	0	0	0	0	526	571	
2	0	0	0	0	540	571	
3	0	0	0	0	537	571	
4	0	0	0	0	521	571	
5	0	0	0	0	518	571	
6	0	0	0	0	489	571	
7	0	0	0	0	487	571	
8	0	0	0	0	464	571	
9	0	0	0	0	490	571	
10	0	0	0	0	494	571	
11	0	0	0	0	514	571	
12	0	0	0	0	486	570	
13	0	0	0	0	487	570	
14	0	0	0	0	543	570	
15	0	0	0	0	657	570	
0	0	0	0	0	673	570	
1	0	0	0	0	526	570	
2	0	0	0	0	416	570	
3	0	0	0	0	463	570	
4	0	0	0	0	485	570	
5	0	0	0	0	505	570	
6	0	0	0	0	498	570	
7	0	0	0	0	484	570	
8	0	0	0	0	485	570	
9	0	0	0	0	519	570	
10	0	0	0	0	503	570	
11	0	0	0	0	509	570	
12	0	0	0	0	534	569	
13	0	0	0	0	499	569	
14	0	0	0	0	500	569	
15	0	0	0	0	519	569	
0	0	0	0	0	510	569	
1	0	0	0	0	543	569	
2	0	0	0	0	528	569	
3	0	0	0	0	566	569	
4	0	0	0	0	531	569	
5	0	0	0	0	567	569	
6	0	0	0	0	556	569	
7	0	0	0	0	558	569	
8	0	0	0	0	562	569	
9	0	0	0	0	536	569	
10	0	0	0	0	531	569	
11	0	0	0	0	492	569	
12	0	0	0	0	479	569	
13	0	0	0	0	458	569	
14	0	0	0	0	456	569	
15	0	0	0	0	449	569	
0	0	0	0	0	467	569	
1	0	0	0	0	465	568	
2	0	0	0	0	470	568	
3	0	0	0	0	455	568	
4	0	0	0	0	485	568	
5	0	0	0	0	482	568	
6	0	0	0	0	474	568	
7	0	0	0	0	496	568	
8	0	0	0	0	483	568	
9	0	0	0	0	496	568	
10	0	0	0	0	476	568	
11	0	0	0	0	502	568	
12	0	0	0	0	483	568	
13	0	0	0	0	488	568	
14	0	0	0	0	504	568	
15	0	0	0	0	514	568	
0	0	0	0	0	507	568	
1	0	0	0	0	508	568	
2	0	0	0	0	506	568	
3	0	0	0	0	489	568	
4	0	0	0	0	519	568	
5	0	0	0	0	485	568	
6	0	0	0	0	509	568	
7	0	0	0	0	524	568	
8	0	0	0	0	534	568	
9	0	0	0	0	550	568	
10	0	0	0	0	481	568	
11	0	0	0	0	552	568	
12	0	0	0	0	521	568	
13	0	0	0	0	471	567	
14	0	0	0	0	515	567	
15	0	0	0	0	497	567	
0	0	0	0	0	492	567	
1	0	0	0	0	489	567	
2	0	0	0	0	516	567	
3	0	0	0	0	465	567	
4	0	0	0	0	508	567	
5	0	0	0	0	575	567	
6	0	0	0	0	677	567	
7	0	0	0	0	647	567	
8	0	0	0	0	486	567	
9	0	0	0	0	419	567	
10	0	0	0	0	481	567	
11	0	0	0	0	486	567	
12	0	0	0	0	485	567	
13	0	0	0	0	485	567	
14	0	0	0	0	503	566	
15	0	0	0	0	505	567	
0	0	0	0	0	490	567	
1	0	0	0	0	514	567	
2	0	0	0	0	515	566	
3	0	0	0	0	480	566	
4	0	0	0	0	498	566	
5	0	0	0	0	499	566	
6	0	0	0	0	501	566	
7	0	0	0	0	510	566	
8	0	0	0	0	545	566	
9	0	0	0	0	518	566	
10	0	0	0	0	521	566	
11	0	0	0	0	540	566	
12	0	0	0	0	549	566	
13	0	0	0	0	544	566	
14	0	0	0	0	578	566	
15	0	0	0	0	566	566	
0	0	0	0	0	526	566	
1	0	0	0	0	512	566	
2	0	0	0	0	492	566	
3	0	0	0	0	462	566	
4	0	0	0	0	492	566	
5	0	0	0	0	456	566	
6	0	0	0	0	450	566	
7	0	0	0	0	476	566	
8	0	0	0	0	479	566	
9	0	0	0	0	473	566	
10	0	0	0	0	475	566	
11	0	0	0	0	489	565	
12	0	0	0	0	477	565	
13	0	0	0	0	487	565	
14	0	0	0	0	505	565	
15	0	0	0	0	488	565	
0	0	0	0	0	476	565	
1	0	0	0	0	523	565	
2	0	0	0	0	515	565	
3	0	0	0	0	486	565	
4	0	0	0	0	505	565	
5	0	0	0	0	503	565	
6	0	0	0	0	503	565	
7	0	0	0	0	494	565	
8	0	0	0	0	491	565	
9	0	0	0	0	508	565	
10	0	0	0	0	510	565	
11	0	0	0	0	478	565	
12	0	0	0	0	498	565	
13	0	0	0	0	506	565	
14	0	0	0	0	487	564	
15	0	0	0	0	520	565	
0	0	0	0	0	536	564	
1	0	0	0	0	535	564	
2	0	0	0	0	539	564	
3	0	0	0	0	519	564	
4	0	0	0	0	512	564	
5	0	0	0	0	487	565	
6	0	0	0	0	484	564	
7	0	0	0	0	499	564	
8	0	0	0	0	501	564	
9	0	0	0	0	489	564	
10	0	0	0	0	507	564	
11	0	0	0	0	519	564	
12	0	0	0	0	496	564	
13	0	0	0	0	461	564	
14	0	0	0	0	554	564	
15	0	0	0	0	668	564	
0	0	0	0	0	699	564	
1	0	0	0	0	530	564	
2	0	0	0	0	436	564	
3	0	0	0	0	450	564	
4	0	0	0	0	472	564	
5	0	0	0	0	485	564	
6	0	0	0	0	484	564	
7	0	0	0	0	489	563	
8	0	0	0	0	488	563	
9	0	0	0	0	510	563	
10	0	0	0	0	486	563	
11	0	0	0	0	508	563	
12	0	0	0	0	502	563	
13	0	0	0	0	504	563	
14	0	0	0	0	512	563	
15	0	0	0	0	505	563	
0	0	0	0	0	509	563	
1	0	0	0	0	476	563	
2	0	0	0	0	553	563	
3	0	0	0	0	533	563	
4	0	0	0	0	531	563	
5	0	0	0	0	565	563	
6	0	0	0	0	547	563	
7	0	0	0	0	549	563	
8	0	0	0	0	554	563	
9	0	0	0	0	547	563	
10	0	0	0	0	517	563	
11	0	0	0	0	496	563	
12	0	0	0	0	467	563	
13	0	0	0	0	462	563	
14	0	0	0	0	469	563	
15	0	0	0	0	444	563	
0	0	0	0	0	464	563	
1	0	0	0	0	479	563	
2	0	0	0	0	482	563	
3	0	0	0	0	444	563	
4	0	0	0	0	464	563	
5	0	0	0	0	491	563	
6	0	0	0	0	500	563	
7	0	0	0	0	478	563	
8	0	0	0	0	492	563	
9	0	0	0	0	497	562	
10	0	0	0	0	505	562	
11	0	0	0	0	507	562	
12	0	0	0	0	486	562	
13	0	0	0	0	508	562	
14	0	0	0	0	499	562	
15	0	0	0	0	509	562	
0	0	0	0	0	508	562	
1	0	0	0	0	495	562	
2	0	0	0	0	515	562	
3	0	0	0	0	504	562	
4	0	0	0	0	498	562	
5	0	0	0	0	512	562	
6	0	0	0	0	502	562	
7	0	0	0	0	503	562	
8	0	0	0	0	500	562	
9	0	0	0	0	520	562	
10	0	0	0	0	495	562	
11	0	0	0	0	474	562	
12	0	0	0	0	524	562	
13	0	0	0	0	506	561	
14	0	0	0	0	504	562	
15	0	0	0	0	524	561	
0	0	0	0	0	508	561	
1	0	0	0	0	491	561	
2	0	0	0	0	488	561	
3	0	0	0	0	517	561	
4	0	0	0	0	537	561	
5	0	0	0	0	500	561	
6	0	0	0	0	516	561	
7	0	0	0	0	511	561	
8	0	0	0	0	497	561	
9	0	0	0	0	497	561	
10	0	0	0	0	494	561	
11	0	0	0	0	520	561	
12	0	0	0	0	511	561	
13	0	0	0	0	527	561	
14	0	0	0	0	508	561	
15	0	0	0	0	515	561	
0	0	0	0	0	508	561	
1	0	0	0	0	526	561	
2	0	0	0	0	512	561	
3	0	0	0	0	492	561	
4	0	0	0	0	499	561	
5	0	0	0	0	529	561	
6	0	0	0	0	525	560	
7	0	0	0	0	535	561	
8	0	0	0	0	533	560	
9	0	0	0	0	534	560	
10	0	0	0	0	512	560	
11	0	0	0	0	494	561	
12	0	0	0	0	503	560	
13	0	0	0	0	490	560	
14	0	0	0	0	488	560	
15	0	0	0	0	504	560	
0	0	0	0	0	499	560	
1	0	0	0	0	491	560	
2	0	0	0	0	462	560	
3	0	0	0	0	514	560	
4	0	0	0	0	672	560	
5	0	0	0	0	716	560	
6	0	0	0	0	548	560	
7	0	0	0	0	425	560	
8	0	0	0	0	438	560	
9	0	0	0	0	478	560	
10	0	0	0	0	461	560	
11	0	0	0	0	479	560	
12	0	0	0	0	468	560	
13	0	0	0	0	495	560	
14	0	0	0	0	492	560	
15	0	0	0	0	508	560	
0	0	0	0	0	500	560	
1	0	0	0	0	497	560	
2	0	0	0	0	500	560	
3	0	0	0	0	502	559	
4	0	0	0	0	508	559	
5	0	0	0	0	523	560	
6	0	0	0	0	504	559	
7	0	0	0	0	516	559	
8	0	0	0	0	543	559	
9	0	0	0	0	554	559	
10	0	0	0	0	555	559	
11	0	0	0	0	551	559	
12	0	0	0	0	543	559	
13	0	0	0	0	575	559	
14	0	0	0	0	550	559	
15	0	0	0	0	532	559	
0	0	0	0	0	521	559	
1	0	0	0	0	474	559	
2	0	0	0	0	465	559	
3	0	0	0	0	471	559	
4	0	0	0	0	456	559	
5	0	0	0	0	454	559	
6	0	0	0	0	474	559	
7	0	0	0	0	469	559	
8	0	0	0	0	448	559	
9	0	0	0	0	483	559	
10	0	0	0	0	483	559	
11	0	0	0	0	493	559	
12	0	0	0	0	499	559	
13	0	0	0	0	489	559	
14	0	0	0	0	482	559	
15	0	0	0	0	507	558	
0	0	0	0	0	473	558	
1	0	0	0	0	502	559	
2	0	0	0	0	512	558	
3	0	0	0	0	487	558	
4	0	0	0	0	509	558	
5	0	0	0	0	492	558	
6	0	0	0	0	489	558	
7	0	0	0	0	513	558	
8	0	0	0	0	512	558	
9	0	0	0	0	487	558	
10	0	0	0	0	528	558	
11	0	0	0	0	491	558	
12	0	0	0	0	524	558	
13	0	0	0	0	515	558	
14	0	0	0	0	517	558	
15	0	0	0	0	505	558	
0	0	0	0	0	526	558	
1	0	0	0	0	507	558	
2	0	0	0	0	496	558	
3	0	0	0	0	528	558	
4	0	0	0	0	528	558	
5	0	0	0	0	519	558	
6	0	0	0	0	497	557	
7	0	0	0	0	519	558	
8	0	0	0	0	507	558	
9	0	0	0	0	496	557	
10	0	0	0	0	514	557	
11	0	0	0	0	499	557	
12	0	0	0	0	533	557	
13	0	0	0	0	531	557	
14	0	0	0	0	516	557	
15	0	0	0	0	500	557	
0	0	0	0	0	502	557	
1	0	0	0	0	503	557	
2	0	0	0	0	491	557	
3	0	0	0	0	499	557	
4	0	0	0	0	497	557	
5	0	0	0	0	498	557	
6	0	0	0	0	471	557	
7	0	0	0	0	504	557	
8	0	0	0	0	562	557	
9	0	0	0	0	673	557	
10	0	0	0	0	670	557	
11	0	0	0	0	464	556	
12	0	0	0	0	419	556	
13	0	0	0	0	460	556	
14	0	0	0	0	470	556	
15	0	0	0	0	501	556	
0	0	0	0	0	509	556	
1	0	0	0	0	504	556	
2	0	0	0	0	499	556	
3	0	0	0	0	497	556	
4	0	0	0	0	492	556	
5	0	0	0	0	508	556	
6	0	0	0	0	480	556	
7	0	0	0	0	519	556	
8	0	0	0	0	518	556	
9	0	0	0	0	521	556	
10	0	0	0	0	541	556	
11	0	0	0	0	517	556	
12	0	0	0	0	511	556	
13	0	0	0	0	511	556	
14	0	0	0	0	552	556	
15	0	0	0	0	558	556	
0	0	0	0	0	565	556	
1	0	0	0	0	569	556	
2	0	0	0	0	554	556	
3	0	0	0	0	540	556	
4	0	0	0	0	512	556	
5	0	0	0	0	509	556	
6	0	0	0	0	463	556	
7	0	0	0	0	449	556	
8	0	0	0	0	454	556	
9	0	0	0	0	463	556	
10	0	0	0	0	459	556	
11	0	0	0	0	445	556	
12	0	0	0	0	468	555	
13	0	0	0	0	490	555	
14	0	0	0	0	467	555	
15	0	0	0	0	487	555	
0	0	0	0	0	504	555	
1	0	0	0	0	481	555	
2	0	0	0	0	488	555	
3	0	0	0	0	493	555	
4	0	0	0	0	509	555	
5	0	0	0	0	521	555	
6	0	0	0	0	505	555	
7	0	0	0	0	492	555	
8	0	0	0	0	514	555	
9	0	0	0	0	514	555	
10	0	0	0	0	492	555	
11	0	0	0	0	511	555	
12	0	0	0	0	520	555	
13	0	0	0	0	507	555	
14	0	0	0	0	494	555	
15	0	0	0	0	510	555	
0	0	0	0	0	496	555	
1	0	0	0	0	494	555	
2	0	0	0	0	518	555	
3	0	0	0	0	524	555	
4	0	0	0	0	526	555	
5	0	0	0	0	532	555	
6	0	0	0	0	526	554	
7	0	0	0	0	523	554	
8	0	0	0	0	509	555	
9	0	0	0	0	483	554	
10	0	0	0	0	499	554	
11	0	0	0	0	490	554	
12	0	0	0	0	496	554	
13	0	0	0	0	499	554	
14	0	0	0	0	492	554	
15	0	0	0	0	512	554	
0	0	0	0	0	474	554	
1	0	0	0	0	512	554	
2	0	0	0	0	607	554	
3	0	0	0	0	683	554	
4	0	0	0	0	575	554	
5	0	0	0	0	420	554	
6	0	0	0	0	423	554	
7	0	0	0	0	482	554	
8	0	0	0	0	483	553	
9	0	0	0	0	479	553	
10	0	0	0	0	500	553	
11	0	0	0	0	493	553	
12	0	0	0	0	508	553	
13	0	0	0	0	487	553	
14	0	0	0	0	507	553	
15	0	0	0	0	509	553	
0	0	0	0	0	509	553	
1	0	0	0	0	519	553	
2	0	0	0	0	489	553	
3	0	0	0	0	526	553	
4	0	0	0	0	536	553	
5	0	0	0	0	510	553	
6	0	0	0	0	552	553	
7	0	0	0	0	535	553	
8	0	0	0	0	545	553	
9	0	0	0	0	525	553	
10	0	0	0	0	568	553	
11	0	0	0	0	568	553	
12	0	0	0	0	557	553	
13	0	0	0	0	525	553	
14	0	0	0	0	488	553	
15	0	0	0	0	483	553	
0	0	0	0	0	456	553	
1	0	0	0	0	440	553	
2	0	0	0	0	475	552	
3	0	0	0	0	451	553	
4	0	0	0	0	455	553	
5	0	0	0	0	485	552	
6	0	0	0	0	456	552	
7	0	0	0	0	475	552	
8	0	0	0	0	481	552	
9	0	0	0	0	489	552	
10	0	0	0	0	495	552	
11	0	0	0	0	478	552	
12	0	0	0	0	505	552	
13	0	0	0	0	507	552	
14	0	0	0	0	496	552	
15	0	0	0	0	479	552	
0	0	0	0	0	514	552	
1	0	0	0	0	510	552	
2	0	0	0	0	507	552	
3	0	0	0	0	509	552	
4	0	0	0	0	492	552	
5	0	0	0	0	509	552	
6	0	0	0	0	511	552	
7	0	0	0	0	503	552	
8	0	0	0	0	522	552	
9	0	0	0	0	513	552	
10	0	0	0	0	487	552	
11	0	0	0	0	491	552	
12	0	0	0	0	517	551	
13	0	0	0	0	508	552	
14	0	0	0	0	502	552	
15	0	0	0	0	526	551	
0	0	0	0	0	529	551	
1	0	0	0	0	524	551	
2	0	0	0	0	510	551	
3	0	0	0	0	529	551	
4	0	0	0	0	529	551	
5	0	0	0	0	492	551	
6	0	0	0	0	494	551	
7	0	0	0	0	499	551	
8	0	0	0	0	499	551	
9	0	0	0	0	499	551	
10	0	0	0	0	484	551	
11	0	0	0	0	507	551	
12	0	0	0	0	483	551	
13	0	0	0	0	529	551	
14	0	0	0	0	686	551	
15	0	0	0	0	708	551	
0	0	0	0	0	524	551	
1	0	0	0	0	395	551	
2	0	0	0	0	462	551	
3	0	0	0	0	487	551	
4	0	0	0	0	496	551	
5	0	0	0	0	483	551	
6	0	0	0	0	505	551	
7	0	0	0	0	485	551	
8	0	0	0	0	511	551	
9	0	0	0	0	479	551	
10	0	0	0	0	505	551	
11	0	0	0	0	530	551	
12	0	0	0	0	509	551	
13	0	0	0	0	512	551	
14	0	0	0	0	497	551	
15	0	0	0	0	512	551	
0	0	0	0	0	529	551	
1	0	0	0	0	520	551	
2	0	0	0	0	536	550	
3	0	0	0	0	559	550	
4	0	0	0	0	554	551	
5	0	0	0	0	556	550	
6	0	0	0	0	540	550	
7	0	0	0	0	550	550	
8	0	0	0	0	548	550	
9	0	0	0	0	517	550	
10	0	0	0	0	504	550	
11	0	0	0	0	445	550	
12	0	0	0	0	478	550	
13	0	0	0	0	464	550	
14	0	0	0	0	454	550	
15	0	0	0	0	483	550	
0	0	0	0	0	466	550	
1	0	0	0	0	483	550	
2	0	0	0	0	463	550	
3	0	0	0	0	486	550	
4	0	0	0	0	479	550	
5	0	0	0	0	475	550	
6	0	0	0	0	480	550	
7	0	0	0	0	478	550	
8	0	0	0	0	504	550	
9	0	0	0	0	481	550	
10	0	0	0	0	504	550	
11	0	0	0	0	515	549	
12	0	0	0	0	507	550	
13	0	0	0	0	508	549	
14	0	0	0	0	505	550	
15	0	0	0	0	495	549	
0	0	0	0	0	505	549	
1	0	0	0	0	514	549	
2	0	0	0	0	501	549	
3	0	0	0	0	480	549	
4	0	0	0	0	519	549	
5	0	0	0	0	496	549	
6	0	0	0	0	512	549	
7	0	0	0	0	531	549	
8	0	0	0	0	515	549	
9	0	0	0	0	514	549	
10	0	0	0	0	505	549	
11	0	0	0	0	496	549	
12	0	0	0	0	506	549	
13	0	0	0	0	516	549	
14	0	0	0	0	531	549	
15	0	0	0	0	502	548	
0	0	0	0	0	502	549	
1	0	0	0	0	524	548	
2	0	0	0	0	544	548	
3	0	0	0	0	533	548	
4	0	0	0	0	523	548	
5	0	0	0	0	528	548	
6	0	0	0	0	500	548	
7	0	0	0	0	487	548	
8	0	0	0	0	493	548	
9	0	0	0	0	510	548	
10	0	0	0	0	509	548	
11	0	0	0	0	483	548	
12	0	0	0	0	481	548	
13	0	0	0	0	491	548	
14	0	0	0	0	460	548	
15	0	0	0	0	549	548	
0	0	0	0	0	700	548	
1	0	0	0	0	703	548	
2	0	0	0	0	505	548	
3	0	0	0	0	414	548	
4	0	0	0	0	470	548	
5	0	0	0	0	496	548	
6	0	0	0	0	472	548	
7	0	0	0	0	493	548	
8	0	0	0	0	491	548	
9	0	0	0	0	491	548	
10	0	0	0	0	486	548	
11	0	0	0	0	490	548	
12	0	0	0	0	502	547	
13	0	0	0	0	507	547	
14	0	0	0	0	502	547	
15	0	0	0	0	511	547	
0	0	0	0	0	504	547	
1	0	0	0	0	517	547	
2	0	0	0	0	524	547	
3	0	0	0	0	536	547	
4	0	0	0	0	541	547	
5	0	0	0	0	546	547	
6	0	0	0	0	555	547	
7	0	0	0	0	559	547	
8	0	0	0	0	550	547	
9	0	0	0	0	557	547	
10	0	0	0	0	557	547	
11	0	0	0	0	535	547	
12	0	0	0	0	498	547	
13	0	0	0	0	477	547	
14	0	0	0	0	462	547	
15	0	0	0	0	477	547	
0	0	0	0	0	472	547	
1	0	0	0	0	459	547	
2	0	0	0	0	467	547	
3	0	0	0	0	478	547	
4	0	0	0	0	442	547	
5	0	0	0	0	489	547	
6	0	0	0	0	495	547	
7	0	0	0	0	489	547	
8	0	0	0	0	518	547	
9	0	0	0	0	496	547	
10	0	0	0	0	489	547	
11	0	0	0	0	506	547	
12	0	0	0	0	488	547	
13	0	0	0	0	515	546	
14	0	0	0	0	497	546	
15	0	0	0	0	502	546	
0	0	0	0	0	521	546	
1	0	0	0	0	499	546	
2	0	0	0	0	507	546	
3	0	0	0	0	508	546	
4	0	0	0	0	503	546	
5	0	0	0	0	513	546	
6	0	0	0	0	514	546	
7	0	0	0	0	512	546	
8	0	0	0	0	511	546	
9	0	0	0	0	509	546	
10	0	0	0	0	485	546	
11	0	0	0	0	513	546	
12	0	0	0	0	499	546	
13	0	0	0	0	486	546	
14	0	0	0	0	511	546	
15	0	0	0	0	535	546	
0	0	0	0	0	512	545	
1	0	0	0	0	509	546	
2	0	0	0	0	504	546	
3	0	0	0	0	516	545	
4	0	0	0	0	523	545	
5	0	0	0	0	485	545	
6	0	0	0	0	513	545	
7	0	0	0	0	507	545	
8	0	0	0	0	508	545	
9	0	0	0	0	519	545	
10	0	0	0	0	521	545	
11	0	0	0	0	540	545	
12	0	0	0	0	535	545	
13	0	0	0	0	511	545	
14	0	0	0	0	514	545	
15	0	0	0	0	517	545	
0	0	0	0	0	499	545	
1	0	0	0	0	499	545	
2	0	0	0	0	508	545	
3	0	0	0	0	481	545	
4	0	0	0	0	501	545	
5	0	0	0	0	502	545	
6	0	0	0	0	517	545	
7	0	0	0	0	473	545	
8	0	0	0	0	579	545	
9	0	0	0	0	726	545	
10	0	0	0	0	692	545	
11	0	0	0	0	514	545	
12	0	0	0	0	417	545	
13	0	0	0	0	457	545	
14	0	0	0	0	505	545	
15	0	0	0	0	484	545	
0	0	0	0	0	502	544	
1	0	0	0	0	504	545	
2	0	0	0	0	495	545	
3	0	0	0	0	501	544	
4	0	0	0	0	507	544	
5	0	0	0	0	481	545	
6	0	0	0	0	503	544	
7	0	0	0	0	517	544	
8	0	0	0	0	499	544	
9	0	0	0	0	513	544	
10	0	0	0	0	527	544	
11	0	0	0	0	531	544	
12	0	0	0	0	535	544	
13	0	0	0	0	542	544	
14	0	0	0	0	535	544	
15	0	0	0	0	556	544	
0	0	0	0	0	562	544	
1	0	0	0	0	579	544	
2	0	0	0	0	546	544	
3	0	0	0	0	528	544	
4	0	0	0	0	520	544	
5	0	0	0	0	504	544	
6	0	0	0	0	474	544	
7	0	0	0	0	462	544	
8	0	0	0	0	448	544	
9	0	0	0	0	475	543	
10	0	0	0	0	446	543	
11	0	0	0	0	468	543	
12	0	0	0	0	448	543	
13	0	0	0	0	468	543	
14	0	0	0	0	475	544	
15	0	0	0	0	480	543	
0	0	0	0	0	475	543	
1	0	0	0	0	498	543	
2	0	0	0	0	493	543	
3	0	0	0	0	500	543	
4	0	0	0	0	504	543	
5	0	0	0	0	492	543	
6	0	0	0	0	501	543	
7	0	0	0	0	507	543	
8	0	0	0	0	500	543	
9	0	0	0	0	473	543	
10	0	0	0	0	499	543	
11	0	0	0	0	519	543	
12	0	0	0	0	509	543	
13	0	0	0	0	491	543	
14	0	0	0	0	514	543	
15	0	0	0	0	486	543	
0	0	0	0	0	508	543	
1	0	0	0	0	498	543	
2	0	0	0	0	512	543	
3	0	0	0	0	505	543	
4	0	0	0	0	504	543	
5	0	0	0	0	494	543	
6	0	0	0	0	500	543	
7	0	0	0	0	499	543	
8	0	0	0	0	513	543	
9	0	0	0	0	494	543	
10	0	0	0	0	508	543	
11	0	0	0	0	502	543	
12	0	0	0	0	494	543	
13	0	0	0	0	505	543	
14	0	0	0	0	508	542	
15	0	0	0	0	524	542	
0	0	0	0	0	534	543	
1	0	0	0	0	551	542	
2	0	0	0	0	530	543	
3	0	0	0	0	506	542	
4	0	0	0	0	499	542	
5	0	0	0	0	499	542	
6	0	0	0	0	476	542	
7	0	0	0	0	495	542	
8	0	0	0	0	489	542	
9	0	0	0	0	495	542	
10	0	0	0	0	495	542	
11	0	0	0	0	491	542	
12	0	0	0	0	473	542	
13	0	0	0	0	570	542	
14	0	0	0	0	716	542	
15	0	0	0	0	647	542	
0	0	0	0	0	490	542	
1	0	0	0	0	404	542	
2	0	0	0	0	443	542	
3	0	0	0	0	487	542	
4	0	0	0	0	486	542	
5	0	0	0	0	471	542	
6	0	0	0	0	481	542	
7	0	0	0	0	485	542	
8	0	0	0	0	497	542	
9	0	0	0	0	493	542	
10	0	0	0	0	451	542	
11	0	0	0	0	511	542	
12	0	0	0	0	519	541	
13	0	0	0	0	497	542	
14	0	0	0	0	513	541	
15	0	0	0	0	528	541	
0	0	0	0	0	530	542	
1	0	0	0	0	515	541	
2	0	0	0	0	527	541	
3	0	0	0	0	542	541	
4	0	0	0	0	542	541	
5	0	0	0	0	565	541	
6	0	0	0	0	560	541	
7	0	0	0	0	551	541	
8	0	0	0	0	534	541	
9	0	0	0	0	508	541	
10	0	0	0	0	493	541	
11	0	0	0	0	463	541	
12	0	0	0	0	475	541	
13	0	0	0	0	433	541	
14	0	0	0	0	463	541	
15	0	0	0	0	443	541	
0	0	0	0	0	466	541	
1	0	0	0	0	472	541	
2	0	0	0	0	461	541	
3	0	0	0	0	472	540	
4	0	0	0	0	491	540	
5	0	0	0	0	480	541	
6	0	0	0	0	492	541	
7	0	0	0	0	492	540	
8	0	0	0	0	489	540	
9	0	0	0	0	496	540	
10	0	0	0	0	488	540	
11	0	0	0	0	513	540	
12	0	0	0	0	504	540	
13	0	0	0	0	459	540	
14	0	0	0	0	519	540	
15	0	0	0	0	509	540	
0	0	0	0	0	483	540	
1	0	0	0	0	496	540	
2	0	0	0	0	501	540	
3	0	0	0	0	504	540	
4	0	0	0	0	510	540	
5	0	0	0	0	486	540	
6	0	0	0	0	502	540	
7	0	0	0	0	493	540	
8	0	0	0	0	539	540	
9	0	0	0	0	527	540	
10	0	0	0	0	537	540	
11	0	0	0	0	507	540	
12	0	0	0	0	522	540	
13	0	0	0	0	498	540	
14	0	0	0	0	486	540	
15	0	0	0	0	494	540	
0	0	0	0	0	498	540	
1	0	0	0	0	474	540	
2	0	0	0	0	499	540	
3	0	0	0	0	511	540	
4	0	0	0	0	505	540	
5	0	0	0	0	463	539	
6	0	0	0	0	497	539	
7	0	0	0	0	643	539	
8	0	0	0	0	736	539	
9	0	0	0	0	584	539	
10	0	0	0	0	445	539	
11	0	0	0	0	433	539	
12	0	0	0	0	463	539	
13	0	0	0	0	480	539	
14	0	0	0	0	487	539	
15	0	0	0	0	497	539	
0	0	0	0	0	508	539	
1	0	0	0	0	497	539	
2	0	0	0	0	487	539	
3	0	0	0	0	513	539	
4	0	0	0	0	502	539	
5	0	0	0	0	517	539	
6	0	0	0	0	514	539	
7	0	0	0	0	515	539	
8	0	0	0	0	505	539	
9	0	0	0	0	524	539	
10	0	0	0	0	521	539	
11	0	0	0	0	563	539	
12	0	0	0	0	558	539	
13	0	0	0	0	564	538	
14	0	0	0	0	551	538	
15	0	0	0	0	572	538	
0	0	0	0	0	565	538	
1	0	0	0	0	561	539	
2	0	0	0	0	509	538	
3	0	0	0	0	529	538	
4	0	0	0	0	487	538	
5	0	0	0	0	471	538	
6	0	0	0	0	455	538	
7	0	0	0	0	445	538	
8	0	0	0	0	445	538	
9	0	0	0	0	454	538	
10	0	0	0	0	467	538	
11	0	0	0	0	469	538	
12	0	0	0	0	468	538	
13	0	0	0	0	499	538	
14	0	0	0	0	482	538	
15	0	0	0	0	490	538	
0	0	0	0	0	501	538	
1	0	0	0	0	504	537	
2	0	0	0	0	492	538	
3	0	0	0	0	513	537	
4	0	0	0	0	487	538	
5	0	0	0	0	473	537	
6	0	0	0	0	496	537	
7	0	0	0	0	521	537	
8	0	0	0	0	503	537	
9	0	0	0	0	514	537	
10	0	0	0	0	504	537	
11	0	0	0	0	516	537	
12	0	0	0	0	519	537	
13	0	0	0	0	506	537	
14	0	0	0	0	529	537	
15	0	0	0	0	541	537	
0	0	0	0	0	549	537	
1	0	0	0	0	520	537	
2	0	0	0	0	502	537	
3	0	0	0	0	470	537	
4	0	0	0	0	491	537	
5	0	0	0	0	497	537	
6	0	0	0	0	502	537	
7	0	0	0	0	496	537	
8	0	0	0	0	501	537	
9	0	0	0	0	496	537	
10	0	0	0	0	486	537	
11	0	0	0	0	516	537	
12	0	0	0	0	630	537	
13	0	0	0	0	688	536	
14	0	0	0	0	549	537	
15	0	0	0	0	434	537	
0	0	0	0	0	427	536	
1	0	0	0	0	463	536	
2	0	0	0	0	510	537	
3	0	0	0	0	498	536	
4	0	0	0	0	522	536	
5	0	0	0	0	492	536	
6	0	0	0	0	494	536	
7	0	0	0	0	515	536	
8	0	0	0	0	502	536	
9	0	0	0	0	512	536	
10	0	0	0	0	512	536	
11	0	0	0	0	529	536	
12	0	0	0	0	525	536	
13	0	0	0	0	515	536	
14	0	0	0	0	520	536	
15	0	0	0	0	536	536	
0	0	0	0	0	533	536	
1	0	0	0	0	534	536	
2	0	0	0	0	559	536	
3	0	0	0	0	564	536	
4	0	0	0	0	560	536	
5	0	0	0	0	558	536	
6	0	0	0	0	535	536	
7	0	0	0	0	535	536	
8	0	0	0	0	508	536	
9	0	0	0	0	479	536	
10	0	0	0	0	454	536	
11	0	0	0	0	450	536	
12	0	0	0	0	452	536	
13	0	0	0	0	445	536	
14	0	0	0	0	473	536	
15	0	0	0	0	473	536	
0	0	0	0	0	473	536	
1	0	0	0	0	484	535	
2	0	0	0	0	487	535	
3	0	0	0	0	476	535	
4	0	0	0	0	468	535	
5	0	0	0	0	493	535	
6	0	0	0	0	487	535	
7	0	0	0	0	499	535	
8	0	0	0	0	491	535	
9	0	0	0	0	500	535	
10	0	0	0	0	514	535	
11	0	0	0	0	508	535	
12	0	0	0	0	492	535	
13	0	0	0	0	505	535	
14	0	0	0	0	507	535	
15	0	0	0	0	509	535	
0	0	0	0	0	524	535	
1	0	0	0	0	532	535	
2	0	0	0	0	523	535	
3	0	0	0	0	528	535	
4	0	0	0	0	479	535	
5	0	0	0	0	491	535	
6	0	0	0	0	485	535	
7	0	0	0	0	502	535	
8	0	0	0	0	503	535	
9	0	0	0	0	510	535	
10	0	0	0	0	508	535	
11	0	0	0	0	498	535	
12	0	0	0	0	482	534	
13	0	0	0	0	494	535	
14	0	0	0	0	549	534	
15	0	0	0	0	717	534	
0	0	0	0	0	681	534	
1	0	0	0	0	491	534	
2	0	0	0	0	429	534	
3	0	0	0	0	469	534	
4	0	0	0	0	460	534	
5	0	0	0	0	491	534	
6	0	0	0	0	483	534	
7	0	0	0	0	508	534	
8	0	0	0	0	489	534	
9	0	0	0	0	503	534	
10	0	0	0	0	496	534	
11	0	0	0	0	500	534	
12	0	0	0	0	514	534	
13	0	0	0	0	528	534	
14	0	0	0	0	519	534	
15	0	0	0	0	511	534	
0	0	0	0	0	534	534	
1	0	0	0	0	528	534	
2	0	0	0	0	543	534	
3	0	0	0	0	511	534	
4	0	0	0	0	555	534	
5	0	0	0	0	540	534	
6	0	0	0	0	544	534	
7	0	0	0	0	548	534	
8	0	0	0	0	563	534	
9	0	0	0	0	546	533	
10	0	0	0	0	507	534	
11	0	0	0	0	494	533	
12	0	0	0	0	475	533	
13	0	0	0	0	465	533	
14	0	0	0	0	452	533	
15	0	0	0	0	473	533	
0	0	0	0	0	476	533	
1	0	0	0	0	458	533	
2	0	0	0	0	476	533	
3	0	0	0	0	488	533	
4	0	0	0	0	484	533	
5	0	0	0	0	476	533	
6	0	0	0	0	491	533	
7	0	0	0	0	489	533	
8	0	0	0	0	497	533	
9	0	0	0	0	490	533	
10	0	0	0	0	508	533	
11	0	0	0	0	510	533	
12	0	0	0	0	499	533	
13	0	0	0	0	492	533	
14	0	0	0	0	515	533	
15	0	0	0	0	492	533	
0	0	0	0	0	508	532	
1	0	0	0	0	526	533	
2	0	0	0	0	494	532	
3	0	0	0	0	496	533	
4	0	0	0	0	511	532	
5	0	0	0	0	511	532	
6	0	0	0	0	508	532	
7	0	0	0	0	495	532	
8	0	0	0	0	520	532	
9	0	0	0	0	515	532	
10	0	0	0	0	496	532	
11	0	0	0	0	511	532	
12	0	0	0	0	519	532	
13	0	0	0	0	498	532	
14	0	0	0	0	536	532	
15	0	0	0	0	529	532	
0	0	0	0	0	532	532	
1	0	0	0	0	523	532	
2	0	0	0	0	521	532	
3	0	0	0	0	510	532	
4	0	0	0	0	495	532	
5	0	0	0	0	501	532	
6	0	0	0	0	507	532	
7	0	0	0	0	483	532	
8	0	0	0	0	489	532	
9	0	0	0	0	482	532	
10	0	0	0	0	512	532	
11	0	0	0	0	468	531	
12	0	0	0	0	526	532	
13	0	0	0	0	647	531	
14	0	0	0	0	739	532	
15	0	0	0	0	556	532	
0	0	0	0	0	409	531	
1	0	0	0	0	429	531	
2	0	0	0	0	491	531	
3	0	0	0	0	484	531	
4	0	0	0	0	472	531	
5	0	0	0	0	480	531	
6	0	0	0	0	485	531	
7	0	0	0	0	495	531	
8	0	0	0	0	498	531	
9	0	0	0	0	495	531	
10	0	0	0	0	510	531	
11	0	0	0	0	513	531	
12	0	0	0	0	515	531	
13	0	0	0	0	506	531	
14	0	0	0	0	523	531	
15	0	0	0	0	507	531	
0	0	0	0	0	526	531	
1	0	0	0	0	540	531	
2	0	0	0	0	530	531	
3	0	0	0	0	550	531	
4	0	0	0	0	560	531	
5	0	0	0	0	555	531	
6	0	0	0	0	550	531	
7	0	0	0	0	552	531	
8	0	0	0	0	536	531	
9	0	0	0	0	495	531	
10	0	0	0	0	488	531	
11	0	0	0	0	454	531	
12	0	0	0	0	467	531	
13	0	0	0	0	464	531	
14	0	0	0	0	469	531	
15	0	0	0	0	475	531	
0	0	0	0	0	479	531	
1	0	0	0	0	479	531	
2	0	0	0	0	476	531	
3	0	0	0	0	490	531	
4	0	0	0	0	469	531	
5	0	0	0	0	488	531	
6	0	0	0	0	511	530	
7	0	0	0	0	513	530	
8	0	0	0	0	501	531	
9	0	0	0	0	481	530	
10	0	0	0	0	497	530	
11	0	0	0	0	502	530	
12	0	0	0	0	504	530	
13	0	0	0	0	499	530	
14	0	0	0	0	502	530	
15	0	0	0	0	490	530	
0	0	0	0	0	519	530	
1	0	0	0	0	498	530	
2	0	0	0	0	504	530	
3	0	0	0	0	504	530	
4	0	0	0	0	512	530	
5	0	0	0	0	493	530	
6	0	0	0	0	480	530	
7	0	0	0	0	503	530	
8	0	0	0	0	501	530	
9	0	0	0	0	513	530	
10	0	0	0	0	505	530	
11	0	0	0	0	521	529	
12	0	0	0	0	509	530	
13	0	0	0	0	492	529	
14	0	0	0	0	509	529	
15	0	0	0	0	521	529	
0	0	0	0	0	530	529	
1	0	0	0	0	495	529	
2	0	0	0	0	510	529	
3	0	0	0	0	502	529	
4	0	0	0	0	519	529	
5	0	0	0	0	516	529	
6	0	0	0	0	519	529	
7	0	0	0	0	506	529	
8	0	0	0	0	535	529	
9	0	0	0	0	540	529	
10	0	0	0	0	533	529	
11	0	0	0	0	507	529	
12	0	0	0	0	537	529	
13	0	0	0	0	494	529	
14	0	0	0	0	500	529	
15	0	0	0	0	487	529	
0	0	0	0	0	515	529	
1	0	0	0	0	489	529	
2	0	0	0	0	508	529	
3	0	0	0	0	500	529	
4	0	0	0	0	483	529	
5	0	0	0	0	472	529	
6	0	0	0	0	582	529	
7	0	0	0	0	715	529	
8	0	0	0	0	683	529	
9	0	0	0	0	489	529	
10	0	0	0	0	408	529	
11	0	0	0	0	471	529	
12	0	0	0	0	470	529	
13	0	0	0	0	486	529	
14	0	0	0	0	485	528	
15	0	0	0	0	496	529	
0	0	0	0	0	480	528	
1	0	0	0	0	507	528	
2	0	0	0	0	489	528	
3	0	0	0	0	487	528	
4	0	0	0	0	513	528	
5	0	0	0	0	500	528	
6	0	0	0	0	513	529	
7	0	0	0	0	507	528	
8	0	0	0	0	520	528	
9	0	0	0	0	515	528	
10	0	0	0	0	537	528	
11	0	0	0	0	532	528	
12	0	0	0	0	542	528	
13	0	0	0	0	563	528	
14	0	0	0	0	556	528	
15	0	0	0	0	542	528	
0	0	0	0	0	535	528	
1	0	0	0	0	548	528	
2	0	0	0	0	520	528	
3	0	0	0	0	486	528	
4	0	0	0	0	480	528	
5	0	0	0	0	471	528	
6	0	0	0	0	455	528	
7	0	0	0	0	456	528	
8	0	0	0	0	449	528	
9	0	0	0	0	469	528	
10	0	0	0	0	487	528	
11	0	0	0	0	472	527	
12	0	0	0	0	495	527	
13	0	0	0	0	483	528	
14	0	0	0	0	493	527	
15	0	0	0	0	475	527	
0	0	0	0	0	504	527	
1	0	0	0	0	498	527	
2	0	0	0	0	498	527	
3	0	0	0	0	494	527	
4	0	0	0	0	519	527	
5	0	0	0	0	506	527	
6	0	0	0	0	490	527	
7	0	0	0	0	498	527	
8	0	0	0	0	494	527	
9	0	0	0	0	494	527	
10	0	0	0	0	515	527	
11	0	0	0	0	514	527	
12	0	0	0	0	501	527	
13	0	0	0	0	503	527	
14	0	0	0	0	501	527	
15	0	0	0	0	513	527	
0	0	0	0	0	508	527	
1	0	0	0	0	505	527	
2	0	0	0	0	529	527	
3	0	0	0	0	507	527	
4	0	0	0	0	523	527	
5	0	0	0	0	492	527	
6	0	0	0	0	494	527	
7	0	0	0	0	521	527	
8	0	0	0	0	517	527	
9	0	0	0	0	497	527	
10	0	0	0	0	505	527	
11	0	0	0	0	526	527	
12	0	0	0	0	509	527	
13	0	0	0	0	496	527	
14	0	0	0	0	520	527	
15	0	0	0	0	508	527	
0	0	0	0	0	508	527	
1	0	0	0	0	479	527	
2	0	0	0	0	514	527	
3	0	0	0	0	503	527	
4	0	0	0	0	518	526	
5	0	0	0	0	508	526	
6	0	0	0	0	539	526	
7	0	0	0	0	527	526	
8	0	0	0	0	526	526	
9	0	0	0	0	531	526	
10	0	0	0	0	533	526	
11	0	0	0	0	491	526	
12	0	0	0	0	500	526	
13	0	0	0	0	489	526	
14	0	0	0	0	491	526	
15	0	0	0	0	500	526	
0	0	0	0	0	504	526	
1	0	0	0	0	494	526	
2	0	0	0	0	490	526	
3	0	0	0	0	476	526	
4	0	0	0	0	570	526	
5	0	0	0	0	705	526	
6	0	0	0	0	652	526	
7	0	0	0	0	491	526	
8	0	0	0	0	411	526	
9	0	0	0	0	466	526	
10	0	0	0	0	460	526	
11	0	0	0	0	483	526	
12	0	0	0	0	505	526	
13	0	0	0	0	499	526	
14	0	0	0	0	487	526	
15	0	0	0	0	493	526	
0	0	0	0	0	510	526	
1	0	0	0	0	496	526	
2	0	0	0	0	504	525	
3	0	0	0	0	526	526	
4	0	0	0	0	512	525	
5	0	0	0	0	503	525	
6	0	0	0	0	521	525	
7	0	0	0	0	522	525	
8	0	0	0	0	506	525	
9	0	0	0	0	544	525	
10	0	0	0	0	543	525	
11	0	0	0	0	546	525	
12	0	0	0	0	552	525	
13	0	0	0	0	562	525	
14	0	0	0	0	528	525	
15	0	0	0	0	549	525	
0	0	0	0	0	519	525	
1	0	0	0	0	507	525	
2	0	0	0	0	451	525	
3	0	0	0	0	462	525	
4	0	0	0	0	458	525	
5	0	0	0	0	436	525	
6	0	0	0	0	469	524	
7	0	0	0	0	473	525	
8	0	0	0	0	472	524	
9	0	0	0	0	465	524	
10	0	0	0	0	483	524	
11	0	0	0	0	485	525	
12	0	0	0	0	491	524	
13	0	0	0	0	483	524	
14	0	0	0	0	522	524	
15	0	0	0	0	492	524	
0	0	0	0	0	487	524	
1	0	0	0	0	512	524	
2	0	0	0	0	470	524	
3	0	0	0	0	504	524	
4	0	0	0	0	490	524	
5	0	0	0	0	528	524	
6	0	0	0	0	497	524	
7	0	0	0	0	494	524	
8	0	0	0	0	502	524	
9	0	0	0	0	487	524	
10	0	0	0	0	525	524	
11	0	0	0	0	508	524	
12	0	0	0	0	475	524	
13	0	0	0	0	500	524	
14	0	0	0	0	509	524	
15	0	0	0	0	512	524	
0	0	0	0	0	479	524	
1	0	0	0	0	515	524	
2	0	0	0	0	500	524	
3	0	0	0	0	539	524	
4	0	0	0	0	542	524	
5	0	0	0	0	512	524	
6	0	0	0	0	511	524	
7	0	0	0	0	546	524	
8	0	0	0	0	508	524	
9	0	0	0	0	481	524	
10	0	0	0	0	472	524	
11	0	0	0	0	511	524	
12	0	0	0	0	500	523	
13	0	0	0	0	474	523	
14	0	0	0	0	520	523	
15	0	0	0	0	499	523	
0	0	0	0	0	481	523	
1	0	0	0	0	514	523	
2	0	0	0	0	679	523	
3	0	0	0	0	704	523	
4	0	0	0	0	539	523	
5	0	0	0	0	436	523	
6	0	0	0	0	456	523	
7	0	0	0	0	487	523	
8	0	0	0	0	436	523	
9	0	0	0	0	485	523	
10	0	0	0	0	494	523	
11	0	0	0	0	505	523	
12	0	0	0	0	503	523	
13	0	0	0	0	491	523	
14	0	0	0	0	483	523	
15	0	0	0	0	498	523	
0	0	0	0	0	515	523	
1	0	0	0	0	471	523	
2	0	0	0	0	536	523	
3	0	0	0	0	530	523	
4	0	0	0	0	540	523	
5	0	0	0	0	543	523	
6	0	0	0	0	532	523	
7	0	0	0	0	542	523	
8	0	0	0	0	538	523	
9	0	0	0	0	574	522	
10	0	0	0	0	565	523	
11	0	0	0	0	552	522	
12	0	0	0	0	543	522	
13	0	0	0	0	521	522	
14	0	0	0	0	497	522	
15	0	0	0	0	481	522	
0	0	0	0	0	451	522	
1	0	0	0	0	472	522	
2	0	0	0	0	448	522	
3	0	0	0	0	447	522	
4	0	0	0	0	460	522	
5	0	0	0	0	459	522	
6	0	0	0	0	480	522	
7	0	0	0	0	475	522	
8	0	0	0	0	494	522	
9	0	0	0	0	462	522	
10	0	0	0	0	491	522	
11	0	0	0	0	501	522	
12	0	0	0	0	502	521	
13	0	0	0	0	490	522	
14	0	0	0	0	495	521	
15	0	0	0	0	504	521	
0	0	0	0	0	481	522	
1	0	0	0	0	513	521	
2	0	0	0	0	504	521	
3	0	0	0	0	513	521	
4	0	0	0	0	493	521	
5	0	0	0	0	499	521	
6	0	0	0	0	505	521	
7	0	0	0	0	501	521	
8	0	0	0	0	510	521	
9	0	0	0	0	509	521	
10	0	0	0	0	524	521	
11	0	0	0	0	481	521	
12	0	0	0	0	530	521	
13	0	0	0	0	510	521	
14	0	0	0	0	513	521	
15	0	0	0	0	520	521	
0	0	0	0	0	534	521	
1	0	0	0	0	513	521	
2	0	0	0	0	514	521	
3	0	0	0	0	535	521	
4	0	0	0	0	509	521	
5	0	0	0	0	508	521	
6	0	0	0	0	489	521	
7	0	0	0	0	486	521	
8	0	0	0	0	487	521	
9	0	0	0	0	502	521	
10	0	0	0	0	496	521	
11	0	0	0	0	504	520	
12	0	0	0	0	487	521	
13	0	0	0	0	520	521	
14	0	0	0	0	649	521	
15	0	0	0	0	700	520	
0	0	0	0	0	549	521	
1	0	0	0	0	432	520	
2	0	0	0	0	441	520	
3	0	0	0	0	461	520	
4	0	0	0	0	472	520	
5	0	0	0	0	472	520	
6	0	0	0	0	493	520	
7	0	0	0	0	511	520	
8	0	0	0	0	496	520	
9	0	0	0	0	508	520	
10	0	0	0	0	501	520	
11	0	0	0	0	513	520	
12	0	0	0	0	518	520	
13	0	0	0	0	507	520	
14	0	0	0	0	537	520	
15	0	0	0	0	494	520	
0	0	0	0	0	522	520	
1	0	0	0	0	534	520	
2	0	0	0	0	527	520	
3	0	0	0	0	551	520	
4	0	0	0	0	553	520	
5	0	0	0	0	556	520	
6	0	0	0	0	534	520	
7	0	0	0	0	549	520	
8	0	0	0	0	575	520	
9	0	0	0	0	522	520	
10	0	0	0	0	497	520	
11	0	0	0	0	486	520	
12	0	0	0	0	466	520	
13	0	0	0	0	480	520	
14	0	0	0	0	450	520	
15	0	0	0	0	442	519	
0	0	0	0	0	464	519	
1	0	0	0	0	461	519	
2	0	0	0	0	479	519	
3	0	0	0	0	476	519	
4	0	0	0	0	477	519	
5	0	0	0	0	484	519	
6	0	0	0	0	479	519	
7	0	0	0	0	491	519	
8	0	0	0	0	476	519	
9	0	0	0	0	511	519	
10	0	0	0	0	481	519	
11	0	0	0	0	499	519	
12	0	0	0	0	483	519	
13	0	0	0	0	489	519	
14	0	0	0	0	512	519	
15	0	0	0	0	483	519	
0	0	0	0	0	489	519	
1	0	0	0	0	497	519	
2	0	0	0	0	504	519	
3	0	0	0	0	506	519	
4	0	0	0	0	504	519	
5	0	0	0	0	505	519	
6	0	0	0	0	496	519	
7	0	0	0	0	515	519	
8	0	0	0	0	506	519	
9	0	0	0	0	521	519	
10	0	0	0	0	519	519	
11	0	0	0	0	508	519	
12	0	0	0	0	530	519	
13	0	0	0	0	501	519	
14	0	0	0	0	512	519	
15	0	0	0	0	495	519	
0	0	0	0	0	499	519	
1	0	0	0	0	483	519	
2	0	0	0	0	505	519	
3	0	0	0	0	496	519	
4	0	0	0	0	516	519	
5	0	0	0	0	512	519	
6	0	0	0	0	517	519	
7	0	0	0	0	627	519	
8	0	0	0	0	651	519	
9	0	0	0	0	532	519	
10	0	0	0	0	430	519	
11	0	0	0	0	445	519	
12	0	0	0	0	454	519	
13	0	0	0	0	497	519	
14	0	0	0	0	520	518	
15	0	0	0	0	496	519	
0	0	0	0	0	496	519	
1	0	0	0	0	505	519	
2	0	0	0	0	519	519	
3	0	0	0	0	491	519	
4	0	0	0	0	523	518	
5	0	0	0	0	515	519	
6	0	0	0	0	519	518	
7	0	0	0	0	543	518	
8	0	0	0	0	515	519	
9	0	0	0	0	547	518	
10	0	0	0	0	537	518	
11	0	0	0	0	548	518	
12	0	0	0	0	560	518	
13	0	0	0	0	561	518	
14	0	0	0	0	551	518	
15	0	0	0	0	559	518	
0	0	0	0	0	529	518	
1	0	0	0	0	524	518	
2	0	0	0	0	523	518	
3	0	0	0	0	493	518	
4	0	0	0	0	455	518	
5	0	0	0	0	469	518	
6	0	0	0	0	460	518	
7	0	0	0	0	455	518	
8	0	0	0	0	461	518	
9	0	0	0	0	475	518	
10	0	0	0	0	459	518	
11	0	0	0	0	460	518	
12	0	0	0	0	467	518	
13	0	0	0	0	491	518	
14	0	0	0	0	481	518	
15	0	0	0	0	467	518	
0	0	0	0	0	515	518	
1	0	0	0	0	478	518	
2	0	0	0	0	501	518	
3	0	0	0	0	512	518	
4	0	0	0	0	468	517	
5	0	0	0	0	523	518	
6	0	0	0	0	494	518	
7	0	0	0	0	507	518	
8	0	0	0	0	510	517	
9	0	0	0	0	502	517	
10	0	0	0	0	502	518	
11	0	0	0	0	510	517	
12	0	0	0	0	545	517	
13	0	0	0	0	543	517	
14	0	0	0	0	536	517	
15	0	0	0	0	489	517	
0	0	0	0	0	485	517	
1	0	0	0	0	496	517	
2	0	0	0	0	515	517	
3	0	0	0	0	498	517	
4	0	0	0	0	475	517	
5	0	0	0	0	491	517	
6	0	0	0	0	518	517	
7	0	0	0	0	479	517	
8	0	0	0	0	500	517	
9	0	0	0	0	512	517	
10	0	0	0	0	671	517	
11	0	0	0	0	688	517	
12	0	0	0	0	537	517	
13	0	0	0	0	430	517	
14	0	0	0	0	446	516	
15	0	0	0	0	491	517	
0	0	0	0	0	480	517	
1	0	0	0	0	495	517	
2	0	0	0	0	482	516	
3	0	0	0	0	503	516	
4	0	0	0	0	504	516	
5	0	0	0	0	508	516	
6	0	0	0	0	495	517	
7	0	0	0	0	510	516	
8	0	0	0	0	505	516	
9	0	0	0	0	510	516	
10	0	0	0	0	496	516	
11	0	0	0	0	525	516	
12	0	0	0	0	522	516	
13	0	0	0	0	520	516	
14	0	0	0	0	562	516	
15	0	0	0	0	526	516	
0	0	0	0	0	547	516	
1	0	0	0	0	542	516	
2	0	0	0	0	568	516	
3	0	0	0	0	568	516	
4	0	0	0	0	552	516	
5	0	0	0	0	515	516	
6	0	0	0	0	511	516	
7	0	0	0	0	492	516	
8	0	0	0	0	472	516	
9	0	0	0	0	423	516	
10	0	0	0	0	480	516	
11	0	0	0	0	455	516	
12	0	0	0	0	449	516	
13	0	0	0	0	489	516	
14	0	0	0	0	476	516	
15	0	0	0	0	491	516	
0	0	0	0	0	487	516	
1	0	0	0	0	493	516	
2	0	0	0	0	486	516	
3	0	0	0	0	500	516	
4	0	0	0	0	513	515	
5	0	0	0	0	505	515	
6	0	0	0	0	505	515	
7	0	0	0	0	508	515	
8	0	0	0	0	515	515	
9	0	0	0	0	526	515	
10	0	0	0	0	488	515	
11	0	0	0	0	492	515	
12	0	0	0	0	518	515	
13	0	0	0	0	485	515	
14	0	0	0	0	542	515	
15	0	0	0	0	539	515	
0	0	0	0	0	549	515	
1	0	0	0	0	528	515	
2	0	0	0	0	519	515	
3	0	0	0	0	506	515	
4	0	0	0	0	489	515	
5	0	0	0	0	489	515	
6	0	0	0	0	503	515	
7	0	0	0	0	503	515	
8	0	0	0	0	502	515	
9	0	0	0	0	497	515	
10	0	0	0	0	503	515	
11	0	0	0	0	494	515	
12	0	0	0	0	502	515	
13	0	0	0	0	611	515	
14	0	0	0	0	754	515	
15	0	0	0	0	640	515	
0	0	0	0	0	447	515	
1	0	0	0	0	422	515	
2	0	0	0	0	486	515	
3	0	0	0	0	491	515	
4	0	0	0	0	463	515	
5	0	0	0	0	500	515	
6	0	0	0	0	489	515	
7	0	0	0	0	512	515	
8	0	0	0	0	510	515	
9	0	0	0	0	502	515	
10	0	0	0	0	509	515	
11	0	0	0	0	534	515	
12	0	0	0	0	483	514	
13	0	0	0	0	528	514	
14	0	0	0	0	532	514	
15	0	0	0	0	536	514	
0	0	0	0	0	539	514	
1	0	0	0	0	516	514	
2	0	0	0	0	540	514	
3	0	0	0	0	555	514	
4	0	0	0	0	557	514	
5	0	0	0	0	540	514	
6	0	0	0	0	593	514	
7	0	0	0	0	543	514	
8	0	0	0	0	535	514	
9	0	0	0	0	434	514	
10	0	0	0	0	511	514	
11	0	0	0	0	472	514	
12	0	0	0	0	393	514	
13	0	0	0	0	482	514	
14	0	0	0	0	480	514	
15	0	0	0	0	466	514	
0	0	0	0	0	455	514	
1	0	0	0	0	468	514	
2	0	0	0	0	496	514	
3	0	0	0	0	495	514	
4	0	0	0	0	474	514	
5	0	0	0	0	502	514	
6	0	0	0	0	496	513	
7	0	0	0	0	498	514	
8	0	0	0	0	491	513	
9	0	0	0	0	528	514	
10	0	0	0	0	497	513	
11	0	0	0	0	496	513	
12	0	0	0	0	515	513	
13	0	0	0	0	522	513	
14	0	0	0	0	520	513	
15	0	0	0	0	498	513	
0	0	0	0	0	518	513	
1	0	0	0	0	504	513	
2	0	0	0	0	495	513	
3	0	0	0	0	504	513	
4	0	0	0	0	489	513	
5	0	0	0	0	500	513	
6	0	0	0	0	504	513	
7	0	0	0	0	492	513	
8	0	0	0	0	511	513	
9	0	0	0	0	511	513	
10	0	0	0	0	502	513	
11	0	0	0	0	489	513	
12	0	0	0	0	510	513	
13	0	0	0	0	528	513	
14	0	0	0	0	513	513	
15	0	0	0	0	510	513	
0	0	0	0	0	524	513	
1	0	0	0	0	550	513	
2	0	0	0	0	530	513	
3	0	0	0	0	516	513	
4	0	0	0	0	506	513	
5	0	0	0	0	483	513	
6	0	0	0	0	482	513	
7	0	0	0	0	481	513	
8	0	0	0	0	502	513	
9	0	0	0	0	490	513	
10	0	0	0	0	507	513	
11	0	0	0	0	498	513	
12	0	0	0	0	494	513	
13	0	0	0	0	468	513	
14	0	0	0	0	600	513	
15	0	0	0	0	747	512	
0	0	0	0	0	666	513	
1	0	0	0	0	455	513	
2	0	0	0	0	425	512	
3	0	0	0	0	458	512	
4	0	0	0	0	474	512	
5	0	0	0	0	477	513	
6	0	0	0	0	471	512	
7	0	0	0	0	477	512	
8	0	0	0	0	508	512	
9	0	0	0	0	483	512	
10	0	0	0	0	493	512	
11	0	0	0	0	512	512	
12	0	0	0	0	499	512	
13	0	0	0	0	491	512	
14	0	0	0	0	518	512	
15	0	0	0	0	508	512	
0	0	0	0	0	516	512	
1	0	0	0	0	521	512	
2	0	0	0	0	522	512	
3	0	0	0	0	545	512	
4	0	0	0	0	548	512	
5	0	0	0	0	542	512	
6	0	0	0	0	531	512	
7	0	0	0	0	567	512	
8	0	0	0	0	559	512	
9	0	0	0	0	535	512	
10	0	0	0	0	512	512	
11	0	0	0	0	479	512	
12	0	0	0	0	497	512	
13	0	0	0	0	459	512	
14	0	0	0	0	462	512	
15	0	0	0	0	459	512	
0	0	0	0	0	476	512	
1	0	0	0	0	464	512	
2	0	0	0	0	455	512	
3	0	0	0	0	484	512	
4	0	0	0	0	480	512	
5	0	0	0	0	495	512	
6	0	0	0	0	505	512	
7	0	0	0	0	473	512	
8	0	0	0	0	501	512	
9	0	0	0	0	475	512	
10	0	0	0	0	516	512	
11	0	0	0	0	506	511	
12	0	0	0	0	504	512	
13	0	0	0	0	493	511	
14	0	0	0	0	496	511	
15	0	0	0	0	507	512	
0	0	0	0	0	520	511	
1	0	0	0	0	503	511	
2	0	0	0	0	495	511	
3	0	0	0	0	495	511	
4	0	0	0	0	519	511	
5	0	0	0	0	491	511	
6	0	0	0	0	496	511	
7	0	0	0	0	504	511	
8	0	0	0	0	509	511	
9	0	0	0	0	516	511	
10	0	0	0	0	505	511	
11	0	0	0	0	528	511	
12	0	0	0	0	498	511	
13	0	0	0	0	492	511	
14	0	0	0	0	506	511	
15	0	0	0	0	507	511	
0	0	0	0	0	519	511	
1	0	0	0	0	503	511	
2	0	0	0	0	505	511	
3	0	0	0	0	513	511	
4	0	0	0	0	504	511	
5	0	0	0	0	518	511	
6	0	0	0	0	502	511	
7	0	0	0	0	514	511	
8	0	0	0	0	513	511	
9	0	0	0	0	497	511	
10	0	0	0	0	515	511	
11	0	0	0	0	512	511	
12	0	0	0	0	534	511	
13	0	0	0	0	512	511	
14	0	0	0	0	527	511	
15	0	0	0	0	520	511	
0	0	0	0	0	494	510	
1	0	0	0	0	500	511	
2	0	0	0	0	500	511	
3	0	0	0	0	504	511	
4	0	0	0	0	483	510	
5	0	0	0	0	483	511	
6	0	0	0	0	494	511	
7	0	0	0	0	500	511	
8	0	0	0	0	476	511	
9	0	0	0	0	549	511	
10	0	0	0	0	662	511	
11	0	0	0	0	700	510	
12	0	0	0	0	482	510	
13	0	0	0	0	416	510	
14	0	0	0	0	442	510	
15	0	0	0	0	470	510	
0	0	0	0	0	507	510	
1	0	0	0	0	499	510	
2	0	0	0	0	490	510	
3	0	0	0	0	497	510	
4	0	0	0	0	511	510	
5	0	0	0	0	505	510	
6	0	0	0	0	511	510	
7	0	0	0	0	502	510	
8	0	0	0	0	526	510	
9	0	0	0	0	515	510	
10	0	0	0	0	522	510	
11	0	0	0	0	511	510	
12	0	0	0	0	496	510	
13	0	0	0	0	540	510	
14	0	0	0	0	527	510	
15	0	0	0	0	545	510	
0	0	0	0	0	531	510	
1	0	0	0	0	553	510	
2	0	0	0	0	555	510	
3	0	0	0	0	558	510	
4	0	0	0	0	568	510	
5	0	0	0	0	528	510	
6	0	0	0	0	487	510	
7	0	0	0	0	491	510	
8	0	0	0	0	451	510	
9	0	0	0	0	451	510	
10	0	0	0	0	441	510	
11	0	0	0	0	462	510	
12	0	0	0	0	481	510	
13	0	0	0	0	467	510	
14	0	0	0	0	467	510	
15	0	0	0	0	477	510	
0	0	0	0	0	487	510	
1	0	0	0	0	480	510	
2	0	0	0	0	486	509	
3	0	0	0	0	499	509	
4	0	0	0	0	490	509	
5	0	0	0	0	502	509	
6	0	0	0	0	494	509	
7	0	0	0	0	485	509	
8	0	0	0	0	500	509	
9	0	0	0	0	503	509	
10	0	0	0	0	494	509	
11	0	0	0	0	489	509	
12	0	0	0	0	515	509	
13	0	0	0	0	504	509	
14	0	0	0	0	496	509	
15	0	0	0	0	522	509	
0	0	0	0	0	535	509	
1	0	0	0	0	516	509	
2	0	0	0	0	512	509	
3	0	0	0	0	503	509	
4	0	0	0	0	516	509	
5	0	0	0	0	499	509	
6	0	0	0	0	521	509	
7	0	0	0	0	526	509	
8	0	0	0	0	499	509	
9	0	0	0	0	530	509	
10	0	0	0	0	493	509	
11	0	0	0	0	537	509	
12	0	0	0	0	551	508	
13	0	0	0	0	530	509	
14	0	0	0	0	490	508	
15	0	0	0	0	507	508	
0	0	0	0	0	516	508	
1	0	0	0	0	504	508	
2	0	0	0	0	508	508	
3	0	0	0	0	487	508	
4	0	0	0	0	505	508	
5	0	0	0	0	486	508	
6	0	0	0	0	494	508	
7	0	0	0	0	478	508	
8	0	0	0	0	552	508	
9	0	0	0	0	695	508	
10	0	0	0	0	713	508	
11	0	0	0	0	496	508	
12	0	0	0	0	413	508	
13	0	0	0	0	452	508	
14	0	0	0	0	484	508	
15	0	0	0	0	447	508	
0	0	0	0	0	503	508	
1	0	0	0	0	487	508	
2	0	0	0	0	507	508	
3	0	0	0	0	518	508	
4	0	0	0	0	494	508	
5	0	0	0	0	504	508	
6	0	0	0	0	519	508	
7	0	0	0	0	494	508	
8	0	0	0	0	524	508	
9	0	0	0	0	506	508	
10	0	0	0	0	526	508	
11	0	0	0	0	519	508	
12	0	0	0	0	541	508	
13	0	0	0	0	537	508	
14	0	0	0	0	531	508	
15	0	0	0	0	559	508	
0	0	0	0	0	535	508	
1	0	0	0	0	568	508	
2	0	0	0	0	560	508	
3	0	0	0	0	543	508	
4	0	0	0	0	539	508	
5	0	0	0	0	487	508	
6	0	0	0	0	483	508	
7	0	0	0	0	460	508	
8	0	0	0	0	448	508	
9	0	0	0	0	443	508	
10	0	0	0	0	463	508	
11	0	0	0	0	451	508	
12	0	0	0	0	464	508	
13	0	0	0	0	473	508	
14	0	0	0	0	473	507	
15	0	0	0	0	460	507	
0	0	0	0	0	492	508	
1	0	0	0	0	498	507	
2	0	0	0	0	482	507	
3	0	0	0	0	487	507	
4	0	0	0	0	511	507	
5	0	0	0	0	504	507	
6	0	0	0	0	494	507	
7	0	0	0	0	492	507	
8	0	0	0	0	515	507	
9	0	0	0	0	504	507	
10	0	0	0	0	511	507	
11	0	0	0	0	496	507	
12	0	0	0	0	505	507	
13	0	0	0	0	499	507	
14	0	0	0	0	522	507	
15	0	0	0	0	498	507	
0	0	0	0	0	497	507	
1	0	0	0	0	518	507	
2	0	0	0	0	502	507	
3	0	0	0	0	494	507	
4	0	0	0	0	530	507	
5	0	0	0	0	480	507	
6	0	0	0	0	513	507	
7	0	0	0	0	512	507	
8	0	0	0	0	531	507	
9	0	0	0	0	504	507	
10	0	0	0	0	497	507	
11	0	0	0	0	492	507	
12	0	0	0	0	502	507	
13	0	0	0	0	513	507	
14	0	0	0	0	491	507	
15	0	0	0	0	526	507	
0	0	0	0	0	497	507	
1	0	0	0	0	518	507	
2	0	0	0	0	511	507	
3	0	0	0	0	523	507	
4	0	0	0	0	507	506	
5	0	0	0	0	478	507	
6	0	0	0	0	527	506	
7	0	0	0	0	518	507	
8	0	0	0	0	524	506	
9	0	0	0	0	520	506	
10	0	0	0	0	514	506	
11	0	0	0	0	543	506	
12	0	0	0	0	508	506	
13	0	0	0	0	531	506	
14	0	0	0	0	494	506	
15	0	0	0	0	494	506	
0	0	0	0	0	492	506	
1	0	0	0	0	469	506	
2	0	0	0	0	520	506	
3	0	0	0	0	500	506	
4	0	0	0	0	490	506	
5	0	0	0	0	468	506	
6	0	0	0	0	484	506	
7	0	0	0	0	579	506	
8	0	0	0	0	710	506	
9	0	0	0	0	675	506	
10	0	0	0	0	457	506	
11	0	0	0	0	425	506	
12	0	0	0	0	469	506	
13	0	0	0	0	481	506	
14	0	0	0	0	484	506	
15	0	0	0	0	487	506	
0	0	0	0	0	478	505	
1	0	0	0	0	492	506	
2	0	0	0	0	484	506	
3	0	0	0	0	499	506	
4	0	0	0	0	509	505	
5	0	0	0	0	496	505	
6	0	0	0	0	510	506	
7	0	0	0	0	525	505	
8	0	0	0	0	501	505	
9	0	0	0	0	516	505	
10	0	0	0	0	537	505	
11	0	0	0	0	515	505	
12	0	0	0	0	547	505	
13	0	0	0	0	531	506	
14	0	0	0	0	529	505	
15	0	0	0	0	565	505	
0	0	0	0	0	561	505	
1	0	0	0	0	558	505	
2	0	0	0	0	531	505	
3	0	0	0	0	511	505	
4	0	0	0	0	513	505	
5	0	0	0	0	476	505	
6	0	0	0	0	442	505	
7	0	0	0	0	460	505	
8	0	0	0	0	463	505	
9	0	0	0	0	476	505	
10	0	0	0	0	461	505	
11	0	0	0	0	450	505	
12	0	0	0	0	468	505	
13	0	0	0	0	496	505	
14	0	0	0	0	505	505	
15	0	0	0	0	491	505	
0	0	0	0	0	483	505	
1	0	0	0	0	510	505	
2	0	0	0	0	476	505	
3	0	0	0	0	496	505	
4	0	0	0	0	504	505	
5	0	0	0	0	515	505	
6	0	0	0	0	496	505	
7	0	0	0	0	509	505	
8	0	0	0	0	480	505	
9	0	0	0	0	508	505	
10	0	0	0	0	522	505	
11	0	0	0	0	491	505	
12	0	0	0	0	499	505	
13	0	0	0	0	514	505	
14	0	0	0	0	507	505	
15	0	0	0	0	513	504	
0	0	0	0	0	514	504	
1	0	0	0	0	495	504	
2	0	0	0	0	527	504	
3	0	0	0	0	500	504	
4	0	0	0	0	510	504	
5	0	0	0	0	499	504	
6	0	0	0	0	513	504	
7	0	0	0	0	489	504	
8	0	0	0	0	521	504	
9	0	0	0	0	504	504	
10	0	0	0	0	515	504	
11	0	0	0	0	512	504	
12	0	0	0	0	503	504	
13	0	0	0	0	504	504	
14	0	0	0	0	509	504	
15	0	0	0	0	528	504	
0	0	0	0	0	517	504	
1	0	0	0	0	524	504	
2	0	0	0	0	515	504	
3	0	0	0	0	519	504	
4	0	0	0	0	519	504	
5	0	0	0	0	516	504	
6	0	0	0	0	508	504	
7	0	0	0	0	472	504	
8	0	0	0	0	499	504	
9	0	0	0	0	481	504	
10	0	0	0	0	505	504	
11	0	0	0	0	485	504	
12	0	0	0	0	516	504	
13	0	0	0	0	498	504	
14	0	0	0	0	492	504	
15	0	0	0	0	635	504	
0	0	0	0	0	715	504	
1	0	0	0	0	560	504	
2	0	0	0	0	439	504	
3	0	0	0	0	441	504	
4	0	0	0	0	478	504	
5	0	0	0	0	464	504	
6	0	0	0	0	499	504	
7	0	0	0	0	473	504	
8	0	0	0	0	501	504	
9	0	0	0	0	481	504	
10	0	0	0	0	491	504	
11	0	0	0	0	512	504	
12	0	0	0	0	507	504	
13	0	0	0	0	498	504	
14	0	0	0	0	511	504	
15	0	0	0	0	498	504	
0	0	0	0	0	526	504	
1	0	0	0	0	515	504	
2	0	0	0	0	538	504	
3	0	0	0	0	530	504	
4	0	0	0	0	566	503	
5	0	0	0	0	554	504	
6	0	0	0	0	551	504	
7	0	0	0	0	559	503	
8	0	0	0	0	537	504	
9	0	0	0	0	542	503	
10	0	0	0	0	527	504	
11	0	0	0	0	521	503	
12	0	0	0	0	484	503	
13	0	0	0	0	468	503	
14	0	0	0	0	452	503	
15	0	0	0	0	444	503	
0	0	0	0	0	461	503	
1	0	0	0	0	443	503	
2	0	0	0	0	436	503	
3	0	0	0	0	469	503	
4	0	0	0	0	464	503	
5	0	0	0	0	469	503	
6	0	0	0	0	498	503	
7	0	0	0	0	473	503	
8	0	0	0	0	475	503	
9	0	0	0	0	458	503	
10	0	0	0	0	512	503	
11	0	0	0	0	491	503	
12	0	0	0	0	505	503	
13	0	0	0	0	497	503	
14	0	0	0	0	503	503	
15	0	0	0	0	483	503	
0	0	0	0	0	503	503	
1	0	0	0	0	506	503	
2	0	0	0	0	511	503	
3	0	0	0	0	492	503	
4	0	0	0	0	515	503	
5	0	0	0	0	501	503	
6	0	0	0	0	483	503	
7	0	0	0	0	501	503	
8	0	0	0	0	505	503	
9	0	0	0	0	497	503	
10	0	0	0	0	491	503	
11	0	0	0	0	498	503	
12	0	0	0	0	504	503	
13	0	0	0	0	507	503	
14	0	0	0	0	507	503	
15	0	0	0	0	511	503	
0	0	0	0	0	504	503	
1	0	0	0	0	522	503	
2	0	0	0	0	523	503	
3	0	0	0	0	518	503	
4	0	0	0	0	518	503	
5	0	0	0	0	488	503	
6	0	0	0	0	489	503	
7	0	0	0	0	478	503	
8	0	0	0	0	480	503	
9	0	0	0	0	483	503	
10	0	0	0	0	467	503	
11	0	0	0	0	504	503	
12	0	0	0	0	481	503	
13	0	0	0	0	483	503	
14	0	0	0	0	611	503	
15	0	0	0	0	701	503	
0	0	0	0	0	560	503	
1	0	0	0	0	432	503	
2	0	0	0	0	420	503	
3	0	0	0	0	443	503	
4	0	0	0	0	463	503	
5	0	0	0	0	491	503	
6	0	0	0	0	493	503	
7	0	0	0	0	479	503	
8	0	0	0	0	481	504	
9	0	0	0	0	499	504	
10	0	0	0	0	494	504	
11	0	0	0	0	470	504	
12	0	0	0	0	508	503	
13	0	0	0	0	517	503	
14	0	0	0	0	503	504	
15	0	0	0	0	502	504	
0	0	0	0	0	507	503	
1	0	0	0	0	512	504	
2	0	0	0	0	518	504	
3	0	0	0	0	539	504	
4	0	0	0	0	536	504	
5	0	0	0	0	536	504	
6	0	0	0	0	547	504	
7	0	0	0	0	554	504	
8	0	0	0	0	556	504	
9	0	0	0	0	519	504	
10	0	0	0	0	499	504	
11	0	0	0	0	457	504	
12	0	0	0	0	444	504	
13	0	0	0	0	450	504	
14	0	0	0	0	446	504	
15	0	0	0	0	444	504	
0	0	0	0	0	458	504	
1	0	0	0	0	441	504	
2	0	0	0	0	453	504	
3	0	0	0	0	476	504	
4	0	0	0	0	470	504	
5	0	0	0	0	461	504	
6	0	0	0	0	457	504	
7	0	0	0	0	485	504	
8	0	0	0	0	487	504	
9	0	0	0	0	490	504	
10	0	0	0	0	507	504	
11	0	0	0	0	504	504	
12	0	0	0	0	480	504	
13	0	0	0	0	502	504	
14	0	0	0	0	493	504	
15	0	0	0	0	510	504	
0	0	0	0	0	522	504	
1	0	0	0	0	508	504	
2	0	0	0	0	492	504	
3	0	0	0	0	506	504	
4	0	0	0	0	505	504	
5	0	0	0	0	514	504	
6	0	0	0	0	522	504	
7	0	0	0	0	523	504	
8	0	0	0	0	517	504	
9	0	0	0	0	548	504	
10	0	0	0	0	518	504	
11	0	0	0	0	526	504	
12	0	0	0	0	529	504	
13	0	0	0	0	482	504	
14	0	0	0	0	518	504	
15	0	0	0	0	496	504	
0	0	0	0	0	509	504	
1	0	0	0	0	515	504	
2	0	0	0	0	548	504	
3	0	0	0	0	513	504	
4	0	0	0	0	533	504	
5	0	0	0	0	507	504	
6	0	0	0	0	511	504	
7	0	0	0	0	454	504	
8	0	0	0	0	515	504	
9	0	0	0	0	538	504	
10	0	0	0	0	507	504	
11	0	0	0	0	503	504	
12	0	0	0	0	503	504	
13	0	0	0	0	518	504	
14	0	0	0	0	488	504	
15	0	0	0	0	499	504	
0	0	0	0	0	568	504	
1	0	0	0	0	718	504	
2	0	0	0	0	719	504	
3	0	0	0	0	513	504	
4	0	0	0	0	436	504	
5	0	0	0	0	447	504	
6	0	0	0	0	493	504	
7	0	0	0	0	500	504	
8	0	0	0	0	478	504	
9	0	0	0	0	489	504	
10	0	0	0	0	497	504	
11	0	0	0	0	488	504	
12	0	0	0	0	507	504	
13	0	0	0	0	503	504	
14	0	0	0	0	533	504	
15	0	0	0	0	531	504	
0	0	0	0	0	524	504	
1	0	0	0	0	535	504	
2	0	0	0	0	540	504	
3	0	0	0	0	510	504	
4	0	0	0	0	555	504	
5	0	0	0	0	573	504	
6	0	0	0	0	529	504	
7	0	0	0	0	568	504	
8	0	0	0	0	562	504	
9	0	0	0	0	539	504	
10	0	0	0	0	552	504	
11	0	0	0	0	565	504	
12	0	0	0	0	523	504	
13	0	0	0	0	516	504	
14	0	0	0	0	481	504	
15	0	0	0	0	465	504	
0	0	0	0	0	440	504	
1	0	0	0	0	472	504	
2	0	0	0	0	488	504	
3	0	0	0	0	454	504	
4	0	0	0	0	482	504	
5	0	0	0	0	464	504	
6	0	0	0	0	474	504	
7	0	0	0	0	488	504	
8	0	0	0	0	487	504	
9	0	0	0	0	507	504	
10	0	0	0	0	503	504	
11	0	0	0	0	500	504	
12	0	0	0	0	511	504	
13	0	0	0	0	516	504	
14	0	0	0	0	495	504	
15	0	0	0	0	504	504	
0	0	0	0	0	507	504	
1	0	0	0	0	470	504	
2	0	0	0	0	522	504	
3	0	0	0	0	509	504	
4	0	0	0	0	516	504	
5	0	0	0	0	516	504	
6	0	0	0	0	497	504	
7	0	0	0	0	508	504	
8	0	0	0	0	474	504	
9	0	0	0	0	515	504	
10	0	0	0	0	535	504	
11	0	0	0	0	503	504	
12	0	0	0	0	481	504	
13	0	0	0	0	502	504	
14	0	0	0	0	531	504	
15	0	0	0	0	514	504	
0	0	0	0	0	514	504	
1	0	0	0	0	511	504	
2	0	0	0	0	490	504	
3	0	0	0	0	524	504	
4	0	0	0	0	519	504	
5	0	0	0	0	519	504	
6	0	0	0	0	556	504	
7	0	0	0	0	543	504	
8	0	0	0	0	519	504	
9	0	0	0	0	532	504	
10	0	0	0	0	456	504	
11	0	0	0	0	523	504	
12	0	0	0	0	497	504	
13	0	0	0	0	515	504	
14	0	0	0	0	480	504	
15	0	0	0	0	500	504	
0	0	0	0	0	482	504	
1	0	0	0	0	498	504	
2	0	0	0	0	455	504	
3	0	0	0	0	531	504	
4	0	0	0	0	683	504	
5	0	0	0	0	671	504	
6	0	0	0	0	460	504	
7	0	0	0	0	379	504	
8	0	0	0	0	407	504	
9	0	0	0	0	447	504	
10	0	0	0	0	447	504	
11	0	0	0	0	447	504	
12	0	0	0	0	471	504	
13	0	0	0	0	460	504	
14	0	0	0	0	442	504	
15	0	0	0	0	455	504	
0	0	0	0	0	439	504	
1	0	0	0	0	487	504	
2	0	0	0	0	443	504	
3	0	0	0	0	466	504	
4	0	0	0	0	476	504	
5	0	0	0	0	478	504	
6	0	0	0	0	502	504	
7	0	0	0	0	509	504	
8	0	0	0	0	521	504	
9	0	0	0	0	552	504	
10	0	0	0	0	544	504	
11	0	0	0	0	521	504	
12	0	0	0	0	565	504	
13	0	0	0	0	571	504	
14	0	0	0	0	550	504	
15	0	0	0	0	532	504	
0	0	0	0	0	488	504	
1	0	0	0	0	512	504	
2	0	0	0	0	462	504	
3	0	0	0	0	462	504	
4	0	0	0	0	476	504	
5	0	0	0	0	465	504	
6	0	0	0	0	486	503	
7	0	0	0	0	497	504	
8	0	0	0	0	491	504	
9	0	0	0	0	475	504	
10	0	0	0	0	465	504	
11	0	0	0	0	540	503	
12	0	0	0	0	508	504	
13	0	0	0	0	509	503	
14	0	0	0	0	515	503	
15	0	0	0	0	508	503	
0	0	0	0	0	528	503	
1	0	0	0	0	517	503	
2	0	0	0	0	516	503	
3	0	0	0	0	534	504	
4	0	0	0	0	534	503	
5	0	0	0	0	526	503	
6	0	0	0	0	527	503	
7	0	0	0	0	512	503	
8	0	0	0	0	515	503	
9	0	0	0	0	524	503	
10	0	0	0	0	523	503	
11	0	0	0	0	528	503	
12	0	0	0	0	520	503	
13	0	0	0	0	536	503	
14	0	0	0	0	538	503	
15	0	0	0	0	533	503	
0	0	0	0	0	557	503	
1	0	0	0	0	542	503	
2	0	0	0	0	562	503	
3	0	0	0	0	530	503	
4	0	0	0	0	515	503	
5	0	0	0	0	514	503	
6	0	0	0	0	524	503	
7	0	0	0	0	532	503	
8	0	0	0	0	486	503	
9	0	0	0	0	512	503	
10	0	0	0	0	485	503	
11	0	0	0	0	527	503	
12	0	0	0	0	497	503	
13	0	0	0	0	555	503	
14	0	0	0	0	686	503	
15	0	0	0	0	698	503	
0	0	0	0	0	508	503	
1	0	0	0	0	444	503	
2	0	0	0	0	463	503	
3	0	0	0	0	495	503	
4	0	0	0	0	516	503	
5	0	0	0	0	516	503	
6	0	0	0	0	488	503	
7	0	0	0	0	520	503	
8	0	0	0	0	519	503	
9	0	0	0	0	488	503	
10	0	0	0	0	551	503	
11	0	0	0	0	513	503	
12	0	0	0	0	533	503	
13	0	0	0	0	492	503	
14	0	0	0	0	542	503	
15	0	0	0	0	532	503	
0	0	0	0	0	535	503	
1	0	0	0	0	539	503	
2	0	0	0	0	536	503	
3	0	0	0	0	560	503	
4	0	0	0	0	561	503	
5	0	0	0	0	570	503	
6	0	0	0	0	560	503	
7	0	0	0	0	574	503	
8	0	0	0	0	556	503	
9	0	0	0	0	543	503	
10	0	0	0	0	508	503	
11	0	0	0	0	483	503	
12	0	0	0	0	456	503	
13	0	0	0	0	446	503	
14	0	0	0	0	481	503	
15	0	0	0	0	472	503	
0	0	0	0	0	462	503	
1	0	0	0	0	465	503	
2	0	0	0	0	446	503	
3	0	0	0	0	504	503	
4	0	0	0	0	485	503	
5	0	0	0	0	499	503	
6	0	0	0	0	478	503	
7	0	0	0	0	508	503	
8	0	0	0	0	505	503	
9	0	0	0	0	483	503	
10	0	0	0	0	512	503	
11	0	0	0	0	499	503	
12	0	0	0	0	490	503	
13	0	0	0	0	513	503	
14	0	0	0	0	507	503	
15	0	0	0	0	505	503	
0	0	0	0	0	502	503	
1	0	0	0	0	500	503	
2	0	0	0	0	486	503	
3	0	0	0	0	556	503	
4	0	0	0	0	509	502	
5	0	0	0	0	510	502	
6	0	0	0	0	509	503	
7	0	0	0	0	513	502	
8	0	0	0	0	551	502	
9	0	0	0	0	512	503	
10	0	0	0	0	533	502	
11	0	0	0	0	530	502	
12	0	0	0	0	495	502	
13	0	0	0	0	489	502	
14	0	0	0	0	492	502	
15	0	0	0	0	508	502	
0	0	0	0	0	516	503	
1	0	0	0	0	479	502	
2	0	0	0	0	495	502	
3	0	0	0	0	502	502	
4	0	0	0	0	482	502	
5	0	0	0	0	543	502	
6	0	0	0	0	661	502	
7	0	0	0	0	737	502	
8	0	0	0	0	517	502	
9	0	0	0	0	416	502	
10	0	0	0	0	448	502	
11	0	0	0	0	473	502	
12	0	0	0	0	475	502	
13	0	0	0	0	490	502	
14	0	0	0	0	463	502	
15	0	0	0	0	515	502	
0	0	0	0	0	520	502	
1	0	0	0	0	508	502	
2	0	0	0	0	488	502	
3	0	0	0	0	531	502	
4	0	0	0	0	513	502	
5	0	0	0	0	501	502	
6	0	0	0	0	505	502	
7	0	0	0	0	526	502	
8	0	0	0	0	546	502	
9	0	0	0	0	531	502	
10	0	0	0	0	518	502	
11	0	0	0	0	572	502	
12	0	0	0	0	568	502	
13	0	0	0	0	549	502	
14	0	0	0	0	544	502	
15	0	0	0	0	534	502	
0	0	0	0	0	556	502	
1	0	0	0	0	524	502	
2	0	0	0	0	478	502	
3	0	0	0	0	463	502	
4	0	0	0	0	473	502	
5	0	0	0	0	448	502	
6	0	0	0	0	461	502	
7	0	0	0	0	475	502	
8	0	0	0	0	488	502	
9	0	0	0	0	461	502	
10	0	0	0	0	484	502	
11	0	0	0	0	484	502	
12	0	0	0	0	508	502	
13	0	0	0	0	485	502	
14	0	0	0	0	500	502	
15	0	0	0	0	505	502	
0	0	0	0	0	494	502	
1	0	0	0	0	489	502	
2	0	0	0	0	520	502	
3	0	0	0	0	492	502	
4	0	0	0	0	508	502	
5	0	0	0	0	492	502	
6	0	0	0	0	523	502	
7	0	0	0	0	516	502	
8	0	0	0	0	503	502	
9	0	0	0	0	505	502	
10	0	0	0	0	509	502	
11	0	0	0	0	517	502	
12	0	0	0	0	511	502	
13	0	0	0	0	529	502	
14	0	0	0	0	534	502	
15	0	0	0	0	519	502	
0	0	0	0	0	505	502	
1	0	0	0	0	484	502	
2	0	0	0	0	467	502	
3	0	0	0	0	505	502	
4	0	0	0	0	473	502	
5	0	0	0	0	501	502	
6	0	0	0	0	510	502	
7	0	0	0	0	491	502	
8	0	0	0	0	491	502	
9	0	0	0	0	452	502	
10	0	0	0	0	536	502	
11	0	0	0	0	696	502	
12	0	0	0	0	716	502	
13	0	0	0	0	497	502	
14	0	0	0	0	400	502	
15	0	0	0	0	440	502	
0	0	0	0	0	480	502	
1	0	0	0	0	475	502	
2	0	0	0	0	472	502	
3	0	0	0	0	482	502	
4	0	0	0	0	463	502	
5	0	0	0	0	497	502	
6	0	0	0	0	496	502	
7	0	0	0	0	495	502	
8	0	0	0	0	483	502	
9	0	0	0	0	516	502	
10	0	0	0	0	500	502	
11	0	0	0	0	544	502	
12	0	0	0	0	494	502	
13	0	0	0	0	514	502	
14	0	0	0	0	536	502	
15	0	0	0	0	540	502	
0	0	0	0	0	536	502	
1	0	0	0	0	569	502	
2	0	0	0	0	563	502	
3	0	0	0	0	542	503	
4	0	0	0	0	563	503	
5	0	0	0	0	533	503	
6	0	0	0	0	508	503	
7	0	0	0	0	476	503	
8	0	0	0	0	465	503	
9	0	0	0	0	461	503	
10	0	0	0	0	455	503	
11	0	0	0	0	446	503	
12	0	0	0	0	465	503	
13	0	0	0	0	462	503	
14	0	0	0	0	460	503	
15	0	0	0	0	470	503	
0	0	0	0	0	476	503	
1	0	0	0	0	479	503	
2	0	0	0	0	484	503	
3	0	0	0	0	496	503	
4	0	0	0	0	481	503	
5	0	0	0	0	495	503	
6	0	0	0	0	498	503	
7	0	0	0	0	483	503	
8	0	0	0	0	495	503	
9	0	0	0	0	499	503	
10	0	0	0	0	498	503	
11	0	0	0	0	494	503	
12	0	0	0	0	519	503	
13	0	0	0	0	496	503	
14	0	0	0	0	500	503	
15	0	0	0	0	504	503	
0	0	0	0	0	496	504	
1	0	0	0	0	511	503	
2	0	0	0	0	498	504	
3	0	0	0	0	519	504	
4	0	0	0	0	512	504	
5	0	0	0	0	539	504	
6	0	0	0	0	526	504	
7	0	0	0	0	510	504	
8	0	0	0	0	525	504	
9	0	0	0	0	489	504	
10	0	0	0	0	508	504	
11	0	0	0	0	496	504	
12	0	0	0	0	502	504	
13	0	0	0	0	478	504	
14	0	0	0	0	481	504	
15	0	0	0	0	515	504	
0	0	0	0	0	506	504	
1	0	0	0	0	496	504	
2	0	0	0	0	495	504	
3	0	0	0	0	633	504	
4	0	0	0	0	759	504	
5	0	0	0	0	602	504	
6	0	0	0	0	434	504	
7	0	0	0	0	441	504	
8	0	0	0	0	465	504	
9	0	0	0	0	458	504	
10	0	0	0	0	510	504	
11	0	0	0	0	488	504	
12	0	0	0	0	482	504	
13	0	0	0	0	484	504	
14	0	0	0	0	507	504	
15	0	0	0	0	534	504	
0	0	0	0	0	519	504	
1	0	0	0	0	509	504	
2	0	0	0	0	502	504	
3	0	0	0	0	487	504	
4	0	0	0	0	506	504	
5	0	0	0	0	516	504	
6	0	0	0	0	499	504	
7	0	0	0	0	544	504	
8	0	0	0	0	533	504	
9	0	0	0	0	558	504	
10	0	0	0	0	569	504	
11	0	0	0	0	542	504	
12	0	0	0	0	554	504	
13	0	0	0	0	544	504	
14	0	0	0	0	539	504	
15	0	0	0	0	512	504	
0	0	0	0	0	465	504	
1	0	0	0	0	446	504	
2	0	0	0	0	467	504	
3	0	0	0	0	453	504	
4	0	0	0	0	431	504	
5	0	0	0	0	460	504	
6	0	0	0	0	457	504	
7	0	0	0	0	465	504	
8	0	0	0	0	497	504	
9	0	0	0	0	467	504	
10	0	0	0	0	495	504	
11	0	0	0	0	496	504	
12	0	0	0	0	500	504	
13	0	0	0	0	490	504	
14	0	0	0	0	502	504	
15	0	0	0	0	466	504	
0	0	0	0	0	519	504	
1	0	0	0	0	506	504	
2	0	0	0	0	515	504	
3	0	0	0	0	514	504	
4	0	0	0	0	507	504	
5	0	0	0	0	503	504	
6	0	0	0	0	499	504	
7	0	0	0	0	480	504	
8	0	0	0	0	522	504	
9	0	0	0	0	513	504	
10	0	0	0	0	486	504	
11	0	0	0	0	518	504	
12	0	0	0	0	496	504	
13	0	0	0	0	517	504	
14	0	0	0	0	502	504	
15	0	0	0	0	482	504	
0	0	0	0	0	525	504	
1	0	0	0	0	530	504	
2	0	0	0	0	531	504	
3	0	0	0	0	514	504	
4	0	0	0	0	546	504	
5	0	0	0	0	536	504	
6	0	0	0	0	495	504	
7	0	0	0	0	505	504	
8	0	0	0	0	463	504	
9	0	0	0	0	501	504	
10	0	0	0	0	482	504	
11	0	0	0	0	491	504	
12	0	0	0	0	516	504	
13	0	0	0	0	515	504	
14	0	0	0	0	484	504	
15	0	0	0	0	507	504	
0	0	0	0	0	645	504	
1	0	0	0	0	720	504	
2	0	0	0	0	555	504	
3	0	0	0	0	417	504	
4	0	0	0	0	443	504	
5	0	0	0	0	478	504	
6	0	0	0	0	481	504	
7	0	0	0	0	475	504	
8	0	0	0	0	490	504	
9	0	0	0	0	522	504	
10	0	0	0	0	491	504	
11	0	0	0	0	512	504	
12	0	0	0	0	533	504	
13	0	0	0	0	508	504	
14	0	0	0	0	519	504	
15	0	0	0	0	514	504	
0	0	0	0	0	524	504	
1	0	0	0	0	513	504	
2	0	0	0	0	524	504	
3	0	0	0	0	519	504	
4	0	0	0	0	539	504	
5	0	0	0	0	573	504	
6	0	0	0	0	537	504	
7	0	0	0	0	558	504	
8	0	0	0	0	564	504	
9	0	0	0	0	574	504	
10	0	0	0	0	566	504	
11	0	0	0	0	524	504	
12	0	0	0	0	504	504	
13	0	0	0	0	477	504	
14	0	0	0	0	472	504	
15	0	0	0	0	457	504	
0	0	0	0	0	454	504	
1	0	0	0	0	462	504	
2	0	0	0	0	465	504	
3	0	0	0	0	462	504	
4	0	0	0	0	465	504	
5	0	0	0	0	492	504	
6	0	0	0	0	477	504	
7	0	0	0	0	488	504	
8	0	0	0	0	495	504	
9	0	0	0	0	487	504	
10	0	0	0	0	496	504	
11	0	0	0	0	491	504	
12	0	0	0	0	503	504	
13	0	0	0	0	489	504	
14	0	0	0	0	469	504	
15	0	0	0	0	502	504	
0	0	0	0	0	496	504	
1	0	0	0	0	487	504	
2	0	0	0	0	514	504	
3	0	0	0	0	509	504	
4	0	0	0	0	508	504	
5	0	0	0	0	490	504	
6	0	0	0	0	469	504	
7	0	0	0	0	527	504	
8	0	0	0	0	481	504	
9	0	0	0	0	521	504	
10	0	0	0	0	521	504	
11	0	0	0	0	536	504	
12	0	0	0	0	502	504	
13	0	0	0	0	495	504	
14	0	0	0	0	527	504	
15	0	0	0	0	530	504	
0	0	0	0	0	519	504	
1	0	0	0	0	519	504	
2	0	0	0	0	511	504	
3	0	0	0	0	518	504	
4	0	0	0	0	485	504	
5	0	0	0	0	505	504	
6	0	0	0	0	501	504	
7	0	0	0	0	491	504	
8	0	0	0	0	479	504	
9	0	0	0	0	494	504	
10	0	0	0	0	492	504	
11	0	0	0	0	467	504	
12	0	0	0	0	536	504	
13	0	0	0	0	641	504	
14	0	0	0	0	700	504	
15	0	0	0	0	515	504	
0	0	0	0	0	411	504	
1	0	0	0	0	431	504	
2	0	0	0	0	449	504	
3	0	0	0	0	485	504	
4	0	0	0	0	481	504	
5	0	0	0	0	491	504	
6	0	0	0	0	498	504	
7	0	0	0	0	499	504	
8	0	0	0	0	496	505	
9	0	0	0	0	496	504	
10	0	0	0	0	478	504	
11	0	0	0	0	519	504	
12	0	0	0	0	510	504	
13	0	0	0	0	471	504	
14	0	0	0	0	508	505	
15	0	0	0	0	513	505	
0	0	0	0	0	509	505	
1	0	0	0	0	521	505	
2	0	0	0	0	525	505	
3	0	0	0	0	543	505	
4	0	0	0	0	528	505	
5	0	0	0	0	531	505	
6	0	0	0	0	528	505	
7	0	0	0	0	559	505	
8	0	0	0	0	510	505	
9	0	0	0	0	486	505	
10	0	0	0	0	452	505	
11	0	0	0	0	444	505	
12	0	0	0	0	427	505	
13	0	0	0	0	462	505	
14	0	0	0	0	441	505	
15	0	0	0	0	463	505	
0	0	0	0	0	455	505	
1	0	0	0	0	469	505	
2	0	0	0	0	472	506	
3	0	0	0	0	438	506	
4	0	0	0	0	489	506	
5	0	0	0	0	474	506	
6	0	0	0	0	461	506	
7	0	0	0	0	483	506	
8	0	0	0	0	503	506	
9	0	0	0	0	497	506	
10	0	0	0	0	488	506	
11	0	0	0	0	476	506	
12	0	0	0	0	494	507	
13	0	0	0	0	499	507	
14	0	0	0	0	464	507	
15	0	0	0	0	510	507	
0	0	0	0	0	498	507	
1	0	0	0	0	496	507	
2	0	0	0	0	487	507	
3	0	0	0	0	484	507	
4	0	0	0	0	515	507	
5	0	0	0	0	508	507	
6	0	0	0	0	507	507	
7	0	0	0	0	485	507	
8	0	0	0	0	501	507	
9	0	0	0	0	496	508	
10	0	0	0	0	502	508	
11	0	0	0	0	517	508	
12	0	0	0	0	513	508	
13	0	0	0	0	486	508	
14	0	0	0	0	499	508	
15	0	0	0	0	540	508	
0	0	0	0	0	529	508	
1	0	0	0	0	513	508	
2	0	0	0	0	505	508	
3	0	0	0	0	504	508	
4	0	0	0	0	490	508	
5	0	0	0	0	498	508	
6	0	0	0	0	494	508	
7	0	0	0	0	478	509	
8	0	0	0	0	499	509	
9	0	0	0	0	491	508	
10	0	0	0	0	481	509	
11	0	0	0	0	494	509	
12	0	0	0	0	603	509	
13	0	0	0	0	699	509	
14	0	0	0	0	632	509	
15	0	0	0	0	451	509	
0	0	0	0	0	426	509	
1	0	0	0	0	423	509	
2	0	0	0	0	499	509	
3	0	0	0	0	488	510	
4	0	0	0	0	468	510	
5	0	0	0	0	463	510	
6	0	0	0	0	499	510	
7	0	0	0	0	490	510	
8	0	0	0	0	517	510	
9	0	0	0	0	540	510	
10	0	0	0	0	512	510	
11	0	0	0	0	504	510	
12	0	0	0	0	520	510	
13	0	0	0	0	512	510	
14	0	0	0	0	523	510	
15	0	0	0	0	518	510	
0	0	0	0	0	544	510	
1	0	0	0	0	532	511	
2	0	0	0	0	547	511	
3	0	0	0	0	562	511	
4	0	0	0	0	574	511	
5	0	0	0	0	561	511	
6	0	0	0	0	550	511	
7	0	0	0	0	546	511	
8	0	0	0	0	513	511	
9	0	0	0	0	497	511	
10	0	0	0	0	468	511	
11	0	0	0	0	438	511	
12	0	0	0	0	470	511	
13	0	0	0	0	467	511	
14	0	0	0	0	441	511	
15	0	0	0	0	475	511	
0	0	0	0	0	489	511	
1	0	0	0	0	485	511	
2	0	0	0	0	487	511	
3	0	0	0	0	510	511	
4	0	0	0	0	524	512	
5	0	0	0	0	494	512	
6	0	0	0	0	515	512	
7	0	0	0	0	529	512	
8	0	0	0	0	512	512	
9	0	0	0	0	512	512	
10	0	0	0	0	501	512	
11	0	0	0	0	512	512	
12	0	0	0	0	523	512	
13	0	0	0	0	500	512	
14	0	0	0	0	509	512	
15	0	0	0	0	496	512	
0	0	0	0	0	504	512	
1	0	0	0	0	494	512	
2	0	0	0	0	504	512	
3	0	0	0	0	523	512	
4	0	0	0	0	515	512	
5	0	0	0	0	504	512	
6	0	0	0	0	517	512	
7	0	0	0	0	482	513	
8	0	0	0	0	513	513	
9	0	0	0	0	523	513	
10	0	0	0	0	501	513	
11	0	0	0	0	502	513	
12	0	0	0	0	507	513	
13	0	0	0	0	462	513	
14	0	0	0	0	528	513	
15	0	0	0	0	491	513	
0	0	0	0	0	521	513	
1	0	0	0	0	508	513	
2	0	0	0	0	503	513	
3	0	0	0	0	524	513	
4	0	0	0	0	519	513	
5	0	0	0	0	527	513	
6	0	0	0	0	545	513	
7	0	0	0	0	521	513	
8	0	0	0	0	495	513	
9	0	0	0	0	500	513	
10	0	0	0	0	488	513	
11	0	0	0	0	483	513	
12	0	0	0	0	487	513	
13	0	0	0	0	491	513	
14	0	0	0	0	480	513	
15	0	0	0	0	486	514	
0	0	0	0	0	478	513	
1	0	0	0	0	478	513	
2	0	0	0	0	566	514	
3	0	0	0	0	693	514	
4	0	0	0	0	668	514	
5	0	0	0	0	438	514	
6	0	0	0	0	388	514	
7	0	0	0	0	448	514	
8	0	0	0	0	453	514	
9	0	0	0	0	455	514	
10	0	0	0	0	448	514	
11	0	0	0	0	487	514	
12	0	0	0	0	441	514	
13	0	0	0	0	495	514	
14	0	0	0	0	476	514	
15	0	0	0	0	495	514	
0	0	0	0	0	484	514	
1	0	0	0	0	488	514	
2	0	0	0	0	498	514	
3	0	0	0	0	476	514	
4	0	0	0	0	502	514	
5	0	0	0	0	473	514	
6	0	0	0	0	530	515	
7	0	0	0	0	525	515	
8	0	0	0	0	516	515	
9	0	0	0	0	529	515	
10	0	0	0	0	538	515	
11	0	0	0	0	545	515	
12	0	0	0	0	548	515	
13	0	0	0	0	533	515	
14	0	0	0	0	496	515	
15	0	0	0	0	413	515	
0	0	0	0	0	478	515	
1	0	0	0	0	414	515	
2	0	0	0	0	418	515	
3	0	0	0	0	419	515	
4	0	0	0	0	432	515	
5	0	0	0	0	415	516	
6	0	0	0	0	437	516	
7	0	0	0	0	411	516	
8	0	0	0	0	454	516	
9	0	0	0	0	443	516	
10	0	0	0	0	446	516	
11	0	0	0	0	470	516	
12	0	0	0	0	449	516	
13	0	0	0	0	450	516	
14	0	0	0	0	434	517	
15	0	0	0	0	455	517	
0	0	0	0	0	445	517	
1	0	0	0	0	394	517	
